16	15	3	39	400	11.0	1211098.0	-89341.0	-5699790.0
16	15	3	39	401	12.0	1593020.0	-88044.0	-5701053.0
16	15	3	39	402	13.0	1893006.0	-86670.0	-5700604.0
16	15	3	39	426	14.0	2062568.0	-85252.0	-5699870.0
16	15	3	39	427	15.0	2102146.0	-83401.0	-5699562.0
16	15	3	39	427	16.0	2001009.0	-82143.0	-5701007.0
16	15	3	39	428	17.0	1773691.0	-80896.0	-5700974.0
16	15	3	39	428	18.0	1424292.0	-78956.0	-5700167.0
16	15	3	39	428	19.0	952298.0	-76836.0	-5699603.0
16	15	3	39	429	20.0	376668.0	-74519.0	-5700667.0
16	15	3	39	429	21.0	-315327.0	-71640.0	-5700950.0
16	15	3	39	430	22.0	-1018952.0	-69857.0	-5700092.0
16	15	3	39	430	23.0	-1606001.0	-68517.0	-5699438.0
16	15	3	39	431	24.0	-1977427.0	-68239.0	-5700224.0
16	15	3	39	431	25.0	-2124498.0	-66067.0	-5700808.0
16	15	3	39	432	26.0	-2086701.0	-63199.0	-5700021.0
16	15	3	39	452	27.0	-1951222.0	-61880.0	-5699513.0
16	15	3	39	453	28.0	-1829102.0	-60225.0	-5700464.0
16	15	3	39	453	29.0	-1758499.0	-57217.0	-5700729.0
16	15	3	39	453	30.0	-1725531.0	-55123.0	-5699940.0
16	15	3	39	454	31.0	-1689064.0	-54368.0	-5699346.0
16	15	3	39	454	32.0	-1627439.0	-53049.0	-5700095.0
16	15	3	39	454	33.0	-1527139.0	-49697.0	-5700829.0
16	15	3	39	454	34.0	-1364278.0	-48031.0	-5700072.0
16	15	3	39	455	35.0	-1143787.0	-47179.0	-5699447.0
16	15	3	39	455	36.0	-878327.0	-45326.0	-5699936.0
16	15	3	39	455	37.0	-587836.0	-42422.0	-5700867.0
16	15	3	39	456	38.0	-312364.0	-41713.0	-5700229.0
16	15	3	39	474	39.0	-83607.0	-41105.0	-5699561.0
16	15	3	39	502	40.0	82944.0	-39213.0	-5699955.0
16	15	3	39	503	41.0	179808.0	-36038.0	-5701016.0
16	15	3	39	503	42.0	232145.0	-34224.0	-5700373.0
16	15	3	39	511	43.0	236220.0	-33282.0	-5699733.0
16	15	3	39	511	44.0	205379.0	-32087.0	-5700507.0
16	15	3	39	512	45.0	162594.0	-30751.0	-5701239.0
16	15	3	39	512	46.0	128846.0	-29124.0	-5700498.0
16	15	3	39	512	47.0	123149.0	-27001.0	-5699823.0
16	15	3	39	512	48.0	128571.0	-24972.0	-5700556.0
16	15	3	39	513	49.0	131781.0	-23171.0	-5701431.0
16	15	3	39	513	50.0	129854.0	-20984.0	-5700742.0
16	15	3	39	513	51.0	140117.0	-18962.0	-5699944.0
16	15	3	39	513	52.0	181361.0	-17434.0	-5699774.0
16	15	3	39	514	53.0	236538.0	-15754.0	-5700957.0
16	15	3	39	514	54.0	279805.0	-13544.0	-5700664.0
16	15	3	39	529	68.0	380763.0	9075.0	-5699881.0
16	15	3	39	529	69.0	365574.0	10359.0	-5700749.0
16	15	3	39	529	70.0	353193.0	11820.0	-5701396.0
16	15	3	39	530	71.0	361220.0	12981.0	-5700659.0
16	15	3	39	530	72.0	366839.0	14818.0	-5699996.0
16	15	3	39	530	73.0	362108.0	17063.0	-5700319.0
16	15	3	39	550	74.0	307780.0	18778.0	-5701596.0
16	15	3	39	550	75.0	260560.0	20838.0	-5701013.0
16	15	3	39	550	76.0	215584.0	23608.0	-5700367.0
16	15	3	39	565	77.0	175634.0	25657.0	-5701067.0
16	15	3	39	566	78.0	170119.0	28249.0	-5701987.0
16	15	3	39	566	79.0	175811.0	30024.0	-5701272.0
16	15	3	39	566	80.0	176468.0	32226.0	-5700558.0
16	15	3	39	566	81.0	176033.0	34791.0	-5700548.0
16	15	3	39	567	82.0	183968.0	37322.0	-5701796.0
16	15	3	39	567	83.0	148360.0	39508.0	-5701304.0
16	15	3	39	567	84.0	94716.0	41649.0	-5700542.0
16	15	3	39	567	85.0	37924.0	44329.0	-5700193.0
16	15	3	39	568	86.0	14696.0	46382.0	-5701651.0
16	15	3	39	568	87.0	55521.0	48945.0	-5701640.0
16	15	3	39	568	88.0	96478.0	52175.0	-5700864.0
16	15	3	39	568	90.0	182141.0	58132.0	-5701682.0
16	15	3	39	569	91.0	210363.0	60516.0	-5701904.0
16	15	3	39	569	92.0	205892.0	62751.0	-5701118.0
16	15	3	39	569	93.0	180859.0	65888.0	-5700501.0
16	15	3	39	569	94.0	136314.0	69060.0	-5701351.0
16	15	3	39	569	95.0	60842.0	72064.0	-5701881.0
16	15	3	39	594	96.0	-6760.0	75161.0	-5701142.0
16	15	3	39	595	97.0	-58493.0	78564.0	-5700568.0
16	15	3	39	595	98.0	-106472.0	82679.0	-5701479.0
16	15	3	39	596	99.0	-134181.0	87228.0	-5701864.0
16	15	3	39	597	100.0	-155086.0	91296.0	-5701056.0
16	15	3	39	598	101.0	-205121.0	94649.0	-5700382.0
16	15	3	39	599	102.0	-263841.0	97851.0	-5700754.0
16	15	3	39	599	103.0	-297933.0	101078.0	-5701889.0
16	15	3	39	600	104.0	-291695.0	104308.0	-5701216.0
16	15	3	39	601	105.0	-258054.0	107913.0	-5700512.0
16	15	3	39	602	106.0	-233659.0	110152.0	-5700716.0
16	15	3	39	603	107.0	-220391.0	113218.0	-5701813.0
16	15	3	39	604	108.0	-229829.0	116068.0	-5701174.0
16	15	3	39	604	109.0	-272434.0	118676.0	-5700471.0
16	15	3	39	605	110.0	-316161.0	121243.0	-5700695.0
16	15	3	39	606	112.0	-327857.0	124941.0	-5701273.0
16	15	3	39	607	113.0	-304132.0	125752.0	-5700588.0
16	15	3	39	607	114.0	-261081.0	125918.0	-5700492.0
16	15	3	39	608	115.0	-222850.0	126976.0	-5701838.0
16	15	3	39	608	116.0	-148004.0	128172.0	-5701449.0
16	15	3	39	609	117.0	-60611.0	128961.0	-5700719.0
16	15	3	39	609	118.0	-10074.0	129553.0	-5700274.0
16	15	3	39	684	119.0	16565.0	130019.0	-5701504.0
16	15	3	39	684	120.0	8818.0	130442.0	-5701532.0
16	15	3	39	685	121.0	-29083.0	131768.0	-5700756.0
16	15	3	39	685	122.0	-66546.0	132113.0	-5700290.0
16	15	3	39	686	123.0	-122076.0	131392.0	-5701531.0
16	15	3	39	686	124.0	-251117.0	131234.0	-5701701.0
16	15	3	39	687	125.0	-484701.0	130675.0	-5700923.0
16	15	3	39	687	126.0	-864827.0	129618.0	-5700424.0
16	15	3	39	688	127.0	-1537449.0	128437.0	-5701501.0
16	15	3	39	700	128.0	-1872202.0	127234.0	-5701632.0
16	15	3	39	700	129.0	-1485868.0	126438.0	-5700857.0
16	15	3	39	701	130.0	-606431.0	125239.0	-5700283.0
16	15	3	39	701	131.0	734024.0	123062.0	-5701021.0
16	15	3	39	702	132.0	1862183.0	121060.0	-5701997.0
16	15	3	39	702	133.0	2439304.0	119389.0	-5701331.0
16	15	3	39	703	157.0	252818.0	82706.0	-5701439.0
16	15	3	39	703	158.0	165863.0	81099.0	-5700781.0
16	15	3	39	704	159.0	91659.0	79191.0	-5701413.0
16	15	3	39	704	160.0	58945.0	77962.0	-5702254.0
16	15	3	39	705	161.0	81513.0	76457.0	-5701521.0
16	15	3	39	705	162.0	125596.0	74808.0	-5700814.0
16	15	3	39	706	163.0	167138.0	73050.0	-5700779.0
16	15	3	39	728	164.0	194132.0	71193.0	-5701930.0
16	15	3	39	728	165.0	212077.0	69733.0	-5701480.0
16	15	3	39	729	166.0	222479.0	68873.0	-5700737.0
16	15	3	39	748	167.0	229153.0	67838.0	-5700674.0
16	15	3	39	749	168.0	229655.0	66285.0	-5701919.0
16	15	3	39	749	169.0	213792.0	65118.0	-5701550.0
16	15	3	39	749	170.0	193394.0	63571.0	-5700781.0
16	15	3	39	773	171.0	170111.0	61778.0	-5700709.0
16	15	3	39	773	172.0	148060.0	60569.0	-5701919.0
16	15	3	39	773	173.0	130175.0	58304.0	-5701522.0
16	15	3	39	794	174.0	105002.0	56796.0	-5700743.0
16	15	3	39	794	175.0	69613.0	54999.0	-5700619.0
16	15	3	39	795	176.0	35911.0	53386.0	-5701943.0
16	15	3	39	795	177.0	27484.0	52014.0	-5701697.0
16	15	3	39	795	178.0	42639.0	50985.0	-5700889.0
16	15	3	39	796	180.0	110639.0	47191.0	-5701755.0
16	15	3	39	796	181.0	123250.0	44955.0	-5701729.0
16	15	3	39	796	182.0	131243.0	42928.0	-5700905.0
16	15	3	39	797	183.0	128046.0	41900.0	-5700418.0
16	15	3	39	797	184.0	140918.0	41277.0	-5701517.0
16	15	3	39	798	185.0	141271.0	40417.0	-5701881.0
16	15	3	39	798	186.0	159677.0	39238.0	-5701105.0
16	15	3	39	798	202.0	-694150.0	33478.0	-5700935.0
16	15	3	39	799	203.0	-712619.0	32924.0	-5700257.0
16	15	3	39	799	204.0	-685087.0	31943.0	-5700808.0
16	15	3	39	800	205.0	-592192.0	31917.0	-5701804.0
16	15	3	39	800	206.0	-472976.0	31886.0	-5701139.0
16	15	3	39	800	207.0	-358877.0	32021.0	-5700454.0
16	15	3	39	801	208.0	-263917.0	32334.0	-5700902.0
16	15	3	39	820	209.0	-182162.0	32421.0	-5701741.0
16	15	3	39	820	210.0	-120959.0	32913.0	-5701079.0
16	15	3	39	820	211.0	-98831.0	34081.0	-5700284.0
16	15	3	39	821	212.0	-110262.0	34774.0	-5700135.0
16	15	3	39	821	213.0	-142091.0	35237.0	-5701494.0
16	15	3	39	840	214.0	-157847.0	34959.0	-5701241.0
16	15	3	39	840	215.0	-164362.0	35108.0	-5700487.0
16	15	3	39	840	216.0	-166107.0	35343.0	-5700328.0
16	15	3	39	841	217.0	-180215.0	35548.0	-5701631.0
16	15	3	39	841	218.0	-203014.0	35914.0	-5701376.0
16	15	3	39	841	219.0	-223439.0	36039.0	-5700616.0
16	15	3	39	842	220.0	-224046.0	36003.0	-5700393.0
16	15	3	39	842	221.0	-187759.0	36340.0	-5701704.0
16	15	3	39	842	222.0	-135926.0	36635.0	-5701569.0
16	15	3	39	843	223.0	-75610.0	36880.0	-5700772.0
16	15	3	39	843	225.0	-694.0	36249.0	-5701647.0
16	15	3	39	843	226.0	10428.0	35073.0	-5701461.0
16	15	3	39	844	227.0	13363.0	33993.0	-5700649.0
16	15	3	39	844	228.0	15413.0	33474.0	-5700198.0
16	15	3	39	844	229.0	-3241.0	32696.0	-5701339.0
16	15	3	39	845	230.0	-34396.0	32152.0	-5701565.0
16	15	3	39	862	231.0	-79681.0	31158.0	-5700739.0
16	15	3	39	880	232.0	-100811.0	30302.0	-5700102.0
16	15	3	39	880	233.0	-102592.0	30658.0	-5700679.0
16	15	3	39	880	234.0	-88289.0	29808.0	-5701499.0
16	15	3	39	881	235.0	-47327.0	28781.0	-5700779.0
16	15	3	39	881	236.0	4288.0	27107.0	-5700317.0
16	15	3	39	881	237.0	80658.0	26354.0	-5701297.0
16	15	3	39	882	238.0	176911.0	25056.0	-5701447.0
16	15	3	39	882	239.0	292416.0	23442.0	-5700652.0
16	15	3	39	882	240.0	415016.0	22008.0	-5700130.0
16	15	3	39	882	241.0	517444.0	21260.0	-5701080.0
16	15	3	39	883	242.0	604274.0	19636.0	-5701520.0
16	15	3	39	883	243.0	659388.0	18688.0	-5700719.0
16	15	3	39	883	244.0	709373.0	17494.0	-5700027.0
16	15	3	39	883	245.0	729134.0	16338.0	-5700409.0
16	15	3	39	883	247.0	726263.0	13788.0	-5700467.0
16	15	3	39	884	248.0	700991.0	12405.0	-5699797.0
16	15	3	39	884	249.0	664844.0	10361.0	-5700676.0
16	15	3	39	884	250.0	607033.0	9369.0	-5701378.0
16	15	3	39	884	251.0	536471.0	8396.0	-5700656.0
16	15	3	39	885	252.0	470398.0	6911.0	-5699953.0
16	15	3	39	885	253.0	414620.0	6098.0	-5700648.0
16	15	3	39	908	254.0	378385.0	5284.0	-5701457.0
16	15	3	39	927	255.0	343504.0	4977.0	-5700775.0
16	15	3	39	927	0.0	327446.0	5633.0	-5700034.0
16	15	3	39	927	1.0	303730.0	5094.0	-5700584.0
16	15	3	39	928	2.0	294383.0	4421.0	-5701458.0
16	15	3	39	928	3.0	278284.0	3494.0	-5700809.0
16	15	3	39	928	4.0	265222.0	2308.0	-5699987.0
16	15	3	39	929	5.0	243985.0	2004.0	-5699920.0
16	15	3	39	929	6.0	214751.0	1246.0	-5701399.0
16	15	3	39	929	7.0	190219.0	487.0	-5701220.0
16	15	3	39	929	8.0	168863.0	-866.0	-5700409.0
16	15	3	39	930	9.0	168094.0	-1643.0	-5700177.0
16	15	3	39	930	10.0	116763.0	-1757.0	-5701426.0
16	15	3	39	930	11.0	32111.0	-2784.0	-5701308.0
16	15	3	39	931	12.0	-94025.0	-3552.0	-5700502.0
16	15	3	39	931	14.0	-393022.0	-4236.0	-5701371.0
16	15	3	39	932	15.0	-580533.0	-5984.0	-5701099.0
16	15	3	39	932	16.0	-778178.0	-7403.0	-5700261.0
16	15	3	39	933	17.0	-953516.0	-8426.0	-5700147.0
16	15	3	39	933	18.0	-1070445.0	-8754.0	-5701461.0
16	15	3	39	934	19.0	-1138018.0	-9303.0	-5701235.0
16	15	3	39	956	20.0	-1142404.0	-9749.0	-5700441.0
16	15	3	39	957	21.0	-1027793.0	-9730.0	-5699944.0
16	15	3	39	957	22.0	-816132.0	-8928.0	-5700996.0
16	15	3	39	958	23.0	-506854.0	-8822.0	-5701342.0
16	15	3	39	959	24.0	-117429.0	-9536.0	-5700604.0
16	15	3	39	960	25.0	344622.0	-10419.0	-5699978.0
16	15	3	39	960	26.0	835583.0	-11309.0	-5700787.0
16	15	3	39	961	27.0	1254876.0	-11967.0	-5701803.0
16	15	3	39	962	28.0	1607349.0	-12645.0	-5701149.0
16	15	3	39	963	29.0	1930595.0	-13237.0	-5700511.0
16	15	3	39	963	30.0	2150492.0	-14006.0	-5701258.0
16	15	3	39	964	31.0	2268829.0	-14870.0	-5701906.0
16	15	3	39	965	32.0	2339221.0	-15297.0	-5701197.0
16	15	3	39	965	33.0	2309425.0	-15957.0	-5700448.0
16	15	3	39	966	34.0	2093989.0	-16325.0	-5700730.0
16	15	3	39	966	36.0	835874.0	-16518.0	-5701087.0
16	15	3	39	967	37.0	-102054.0	-17832.0	-5700178.0
16	15	3	39	967	38.0	-977497.0	-18601.0	-5700096.0
16	15	3	39	967	39.0	-1607124.0	-19272.0	-5701271.0
16	15	3	39	968	40.0	-1967997.0	-20481.0	-5700912.0
16	15	3	39	968	41.0	-2116504.0	-20804.0	-5700066.0
16	15	3	39	969	42.0	-2115410.0	-20882.0	-5700237.0
16	15	3	39	997	43.0	-2001684.0	-21239.0	-5701609.0
16	15	3	39	998	44.0	-1800006.0	-21100.0	-5701246.0
16	15	3	40	12	45.0	-1519747.0	-20409.0	-5700455.0
16	15	3	40	12	46.0	-1242999.0	-19799.0	-5700595.0
16	15	3	40	13	47.0	-1043906.0	-20356.0	-5701831.0
16	15	3	40	13	48.0	-919384.0	-20920.0	-5701456.0
16	15	3	40	14	49.0	-869046.0	-21424.0	-5700636.0
16	15	3	40	14	50.0	-858814.0	-21922.0	-5700651.0
16	15	3	40	15	51.0	-835392.0	-22327.0	-5702000.0
16	15	3	40	15	52.0	-759452.0	-22536.0	-5701708.0
16	15	3	40	16	53.0	-617127.0	-22931.0	-5700909.0
16	15	3	40	16	54.0	-460683.0	-23592.0	-5700334.0
16	15	3	40	17	55.0	-311565.0	-24412.0	-5701151.0
16	15	3	40	39	56.0	-207912.0	-24869.0	-5701696.0
16	15	3	40	39	57.0	-125632.0	-25987.0	-5700955.0
16	15	3	40	40	59.0	-17620.0	-26510.0	-5701571.0
16	15	3	40	40	60.0	-1389.0	-28034.0	-5701720.0
16	15	3	40	40	61.0	-15891.0	-29300.0	-5700925.0
16	15	3	40	41	62.0	-52815.0	-29939.0	-5700300.0
16	15	3	40	41	63.0	-66090.0	-30464.0	-5701157.0
16	15	3	40	42	64.0	-59476.0	-31150.0	-5701896.0
16	15	3	40	57	65.0	-53509.0	-31636.0	-5701171.0
16	15	3	40	58	66.0	-21527.0	-31697.0	-5700449.0
16	15	3	40	58	67.0	33724.0	-31262.0	-5700485.0
16	15	3	40	58	68.0	53803.0	-31037.0	-5701423.0
16	15	3	40	59	69.0	45616.0	-30822.0	-5700921.0
16	15	3	40	59	70.0	42343.0	-31093.0	-5700147.0
16	15	3	40	59	71.0	58651.0	-31595.0	-5700426.0
16	15	3	40	60	72.0	95069.0	-31339.0	-5701472.0
16	15	3	40	60	73.0	144738.0	-31167.0	-5700949.0
16	15	3	40	60	74.0	231990.0	-32020.0	-5700151.0
16	15	3	40	60	75.0	362873.0	-32310.0	-5700335.0
16	15	3	40	61	76.0	491891.0	-32410.0	-5701397.0
16	15	3	40	61	77.0	578881.0	-32612.0	-5700948.0
16	15	3	40	61	78.0	606386.0	-32564.0	-5700149.0
16	15	3	40	62	79.0	627464.0	-32763.0	-5700386.0
16	15	3	40	62	81.0	588699.0	-33319.0	-5701087.0
16	15	3	40	62	82.0	567853.0	-33747.0	-5700292.0
16	15	3	40	63	83.0	482269.0	-34101.0	-5700080.0
16	15	3	40	63	84.0	374947.0	-34237.0	-5701378.0
16	15	3	40	63	85.0	335821.0	-34049.0	-5701252.0
16	15	3	40	63	86.0	341971.0	-33307.0	-5700444.0
16	15	3	40	64	87.0	333016.0	-32789.0	-5699947.0
16	15	3	40	88	88.0	310981.0	-32605.0	-5700974.0
16	15	3	40	88	89.0	296778.0	-31946.0	-5701317.0
16	15	3	40	97	90.0	284829.0	-30019.0	-5700508.0
16	15	3	40	98	91.0	248420.0	-28913.0	-5700188.0
16	15	3	40	98	92.0	181324.0	-28282.0	-5701434.0
16	15	3	40	98	93.0	120901.0	-27601.0	-5701415.0
16	15	3	40	99	94.0	26214.0	-26359.0	-5700588.0
16	15	3	40	99	95.0	-66252.0	-25141.0	-5700137.0
16	15	3	40	99	96.0	-150439.0	-24068.0	-5701284.0
16	15	3	40	99	97.0	-222896.0	-22849.0	-5701494.0
16	15	3	40	100	98.0	-242102.0	-21231.0	-5700652.0
16	15	3	40	100	99.0	-207292.0	-19687.0	-5699974.0
16	15	3	40	100	100.0	-175750.0	-17786.0	-5700614.0
16	15	3	40	101	101.0	-150345.0	-15736.0	-5701202.0
16	15	3	40	101	102.0	-123413.0	-13436.0	-5700484.0
16	15	3	40	101	104.0	-73912.0	-8081.0	-5700220.0
16	15	3	40	102	105.0	-78002.0	-5813.0	-5701302.0
16	15	3	40	116	106.0	-101166.0	-2772.0	-5700700.0
16	15	3	40	117	107.0	-126536.0	794.0	-5700002.0
16	15	3	40	117	108.0	-117782.0	4506.0	-5700519.0
16	15	3	40	117	109.0	-114618.0	7718.0	-5701371.0
16	15	3	40	135	110.0	-111735.0	11733.0	-5700734.0
16	15	3	40	136	111.0	-58456.0	17104.0	-5699980.0
16	15	3	40	136	112.0	8848.0	22746.0	-5700399.0
16	15	3	40	137	113.0	54390.0	27568.0	-5701387.0
16	15	3	40	137	114.0	70280.0	32773.0	-5700797.0
16	15	3	40	137	115.0	99551.0	38081.0	-5699964.0
16	15	3	40	138	116.0	96346.0	43709.0	-5699675.0
16	15	3	40	138	117.0	85419.0	48796.0	-5700767.0
16	15	3	40	138	118.0	69909.0	54063.0	-5700575.0
16	15	3	40	139	119.0	34449.0	59493.0	-5699758.0
16	15	3	40	139	120.0	50491.0	64709.0	-5699727.0
16	15	3	40	139	121.0	110920.0	69578.0	-5700931.0
16	15	3	40	154	122.0	190140.0	74703.0	-5700617.0
16	15	3	40	178	123.0	268845.0	80219.0	-5699823.0
16	15	3	40	179	124.0	375911.0	85227.0	-5699724.0
16	15	3	40	179	126.0	702186.0	94344.0	-5700890.0
16	15	3	40	180	127.0	825735.0	98549.0	-5700071.0
16	15	3	40	180	128.0	889614.0	102111.0	-5699747.0
16	15	3	40	181	129.0	839165.0	105668.0	-5700921.0
16	15	3	40	195	130.0	723492.0	109231.0	-5700867.0
16	15	3	40	195	131.0	566053.0	113398.0	-5700008.0
16	15	3	40	196	132.0	343569.0	117229.0	-5699419.0
16	15	3	40	196	133.0	65845.0	120569.0	-5700341.0
16	15	3	40	196	134.0	-220898.0	123216.0	-5700751.0
16	15	3	40	197	135.0	-494279.0	125019.0	-5699971.0
16	15	3	40	197	136.0	-750351.0	126646.0	-5699322.0
16	15	3	40	197	137.0	-950614.0	128205.0	-5700063.0
16	15	3	40	197	138.0	-1089841.0	128835.0	-5700772.0
16	15	3	40	198	149.0	1425284.0	107579.0	-5699672.0
16	15	3	40	198	150.0	1264022.0	103286.0	-5701027.0
16	15	3	40	198	151.0	878404.0	99143.0	-5700683.0
16	15	3	40	199	152.0	449248.0	94992.0	-5699847.0
16	15	3	40	199	153.0	47941.0	91033.0	-5699827.0
16	15	3	40	199	154.0	-287831.0	86584.0	-5701175.0
16	15	3	40	224	155.0	-523659.0	81967.0	-5700880.0
16	15	3	40	224	156.0	-656617.0	78114.0	-5700065.0
16	15	3	40	225	157.0	-734010.0	74561.0	-5699806.0
16	15	3	40	225	158.0	-760762.0	69959.0	-5701033.0
16	15	3	40	245	159.0	-742152.0	64961.0	-5700879.0
16	15	3	40	245	160.0	-676034.0	59984.0	-5700083.0
16	15	3	40	246	161.0	-569443.0	55036.0	-5699909.0
16	15	3	40	246	162.0	-474052.0	50202.0	-5701283.0
16	15	3	40	247	163.0	-408816.0	45292.0	-5701188.0
16	15	3	40	247	164.0	-375046.0	40671.0	-5700376.0
16	15	3	40	247	165.0	-356205.0	35938.0	-5699841.0
16	15	3	40	248	166.0	-382193.0	30899.0	-5700857.0
16	15	3	40	248	167.0	-467092.0	26640.0	-5701346.0
16	15	3	40	248	168.0	-303101.0	21540.0	-5700583.0
16	15	3	40	249	169.0	103520.0	16986.0	-5699977.0
16	15	3	40	249	171.0	132626.0	7872.0	-5701424.0
16	15	3	40	249	172.0	160899.0	2498.0	-5700660.0
16	15	3	40	250	173.0	188774.0	-2147.0	-5700023.0
16	15	3	40	250	174.0	241570.0	-6038.0	-5700842.0
16	15	3	40	250	175.0	304769.0	-10160.0	-5701576.0
16	15	3	40	251	176.0	387561.0	-13991.0	-5700868.0
16	15	3	40	269	177.0	478169.0	-17276.0	-5700175.0
16	15	3	40	313	178.0	551934.0	-20762.0	-5700502.0
16	15	3	40	359	179.0	586591.0	-24193.0	-5701387.0
16	15	3	40	382	180.0	584866.0	-27467.0	-5700811.0
16	15	3	40	383	181.0	564201.0	-30678.0	-5700068.0
16	15	3	40	384	182.0	532866.0	-33514.0	-5700124.0
16	15	3	40	384	183.0	507723.0	-36799.0	-5701307.0
16	15	3	40	385	184.0	481421.0	-39472.0	-5700897.0
16	15	3	40	386	185.0	471564.0	-42444.0	-5700108.0
16	15	3	40	386	186.0	474616.0	-45664.0	-5699961.0
16	15	3	40	387	187.0	480519.0	-48279.0	-5701279.0
16	15	3	40	387	188.0	496352.0	-50832.0	-5701038.0
16	15	3	40	388	189.0	516849.0	-53491.0	-5700241.0
16	15	3	40	389	190.0	533346.0	-55953.0	-5700439.0
16	15	3	40	389	191.0	522756.0	-58265.0	-5701526.0
16	15	3	40	390	193.0	430592.0	-62094.0	-5700257.0
16	15	3	40	390	216.0	-89751.0	-63716.0	-5701352.0
16	15	3	40	391	238.0	1223560.0	-40804.0	-5700536.0
16	15	3	40	392	239.0	1070954.0	-40957.0	-5700034.0
16	15	3	40	392	240.0	850151.0	-41063.0	-5701096.0
16	15	3	40	393	241.0	572053.0	-41151.0	-5701411.0
16	15	3	40	394	242.0	275503.0	-41330.0	-5700545.0
16	15	3	40	394	243.0	-17640.0	-41321.0	-5699847.0
16	15	3	40	395	244.0	-291975.0	-41525.0	-5700679.0
16	15	3	40	416	245.0	-535571.0	-41786.0	-5701446.0
16	15	3	40	417	246.0	-728655.0	-41787.0	-5700680.0
16	15	3	40	417	247.0	-867540.0	-40236.0	-5699956.0
16	15	3	40	418	248.0	-983243.0	-40326.0	-5700029.0
16	15	3	40	418	249.0	-1114013.0	-40319.0	-5701059.0
16	15	3	40	418	250.0	-1239072.0	-41229.0	-5700520.0
16	15	3	40	419	251.0	-1293438.0	-42467.0	-5699820.0
16	15	3	40	419	252.0	-1294594.0	-43198.0	-5700552.0
16	15	3	40	420	253.0	-1272013.0	-43803.0	-5701399.0
16	15	3	40	420	254.0	-1260083.0	-44733.0	-5700721.0
16	15	3	40	421	255.0	-1244699.0	-45458.0	-5699929.0
16	15	3	40	421	0.0	-1214040.0	-46434.0	-5699892.0
16	15	3	40	422	1.0	-1163437.0	-47358.0	-5701165.0
16	15	3	40	422	2.0	-1085510.0	-48292.0	-5700825.0
16	15	3	40	422	3.0	-977633.0	-49357.0	-5700019.0
16	15	3	40	423	5.0	-720946.0	-51901.0	-5701224.0
16	15	3	40	423	6.0	-595982.0	-54206.0	-5700906.0
16	15	3	40	424	7.0	-449647.0	-55763.0	-5700121.0
16	15	3	40	424	8.0	-303043.0	-56888.0	-5699867.0
16	15	3	40	439	9.0	-185349.0	-57696.0	-5701212.0
16	15	3	40	439	10.0	-96716.0	-58427.0	-5701239.0
16	15	3	40	459	11.0	-33527.0	-59685.0	-5700444.0
16	15	3	40	459	12.0	7984.0	-60487.0	-5700091.0
16	15	3	40	494	13.0	50590.0	-60254.0	-5701391.0
16	15	3	40	495	14.0	98300.0	-60347.0	-5701541.0
16	15	3	40	496	15.0	144738.0	-61171.0	-5700764.0
16	15	3	40	496	16.0	166929.0	-61712.0	-5700279.0
16	15	3	40	496	17.0	139189.0	-61696.0	-5701363.0
16	15	3	40	514	18.0	97789.0	-62022.0	-5701722.0
16	15	3	40	514	19.0	80631.0	-61989.0	-5700872.0
16	15	3	40	515	20.0	71026.0	-62801.0	-5700207.0
16	15	3	40	516	21.0	74874.0	-63623.0	-5700806.0
16	15	3	40	516	22.0	123244.0	-63265.0	-5701582.0
16	15	3	40	517	23.0	219619.0	-63384.0	-5700881.0
16	15	3	40	517	24.0	350816.0	-63497.0	-5700214.0
16	15	3	40	518	25.0	490939.0	-63727.0	-5700817.0
16	15	3	40	518	27.0	736481.0	-63898.0	-5700921.0
16	15	3	40	519	28.0	841770.0	-64174.0	-5700241.0
16	15	3	40	519	50.0	969493.0	-43575.0	-5701236.0
16	15	3	40	520	51.0	1177388.0	-43084.0	-5701306.0
16	15	3	40	520	52.0	1320428.0	-41561.0	-5700530.0
16	15	3	40	521	53.0	1365137.0	-40159.0	-5699984.0
16	15	3	40	522	54.0	1318224.0	-38716.0	-5700886.0
16	15	3	40	522	55.0	1170038.0	-37415.0	-5701257.0
16	15	3	40	543	56.0	882572.0	-36152.0	-5700479.0
16	15	3	40	544	57.0	469848.0	-34688.0	-5699777.0
16	15	3	40	544	58.0	-31828.0	-32249.0	-5700690.0
16	15	3	40	545	59.0	-536354.0	-30574.0	-5701511.0
16	15	3	40	545	60.0	-973384.0	-29050.0	-5700730.0
16	15	3	40	546	61.0	-1294873.0	-27819.0	-5700059.0
16	15	3	40	546	62.0	-1498701.0	-27026.0	-5700994.0
16	15	3	40	546	63.0	-1569316.0	-25424.0	-5701351.0
16	15	3	40	568	64.0	-1499794.0	-24374.0	-5700616.0
16	15	3	40	568	65.0	-1321256.0	-23229.0	-5699956.0
16	15	3	40	569	66.0	-1079278.0	-21649.0	-5700746.0
16	15	3	40	569	67.0	-812206.0	-19986.0	-5701368.0
16	15	3	40	570	68.0	-564507.0	-18537.0	-5700747.0
16	15	3	40	570	69.0	-376091.0	-18418.0	-5699939.0
16	15	3	40	570	70.0	-242200.0	-17557.0	-5699935.0
16	15	3	40	571	72.0	-49555.0	-16318.0	-5700977.0
16	15	3	40	571	73.0	38188.0	-17147.0	-5700176.0
16	15	3	40	571	74.0	130888.0	-17151.0	-5700224.0
16	15	3	40	572	75.0	235776.0	-16920.0	-5701673.0
16	15	3	40	572	76.0	324486.0	-16560.0	-5701400.0
16	15	3	40	587	77.0	391188.0	-16120.0	-5700578.0
16	15	3	40	588	78.0	432631.0	-15556.0	-5700346.0
16	15	3	40	588	79.0	451053.0	-14896.0	-5701593.0
16	15	3	40	588	80.0	441559.0	-13489.0	-5701463.0
16	15	3	40	589	81.0	426901.0	-12641.0	-5700651.0
16	15	3	40	589	82.0	394876.0	-11844.0	-5700447.0
16	15	3	40	589	83.0	346228.0	-11574.0	-5701737.0
16	15	3	40	606	84.0	298024.0	-11153.0	-5701616.0
16	15	3	40	606	85.0	290889.0	-10351.0	-5700803.0
16	15	3	40	606	86.0	305743.0	-10138.0	-5700288.0
16	15	3	40	607	87.0	333355.0	-9281.0	-5701353.0
16	15	3	40	607	88.0	381211.0	-9432.0	-5701643.0
16	15	3	40	607	89.0	394056.0	-9479.0	-5700842.0
16	15	3	40	608	90.0	379817.0	-9059.0	-5700258.0
16	15	3	40	608	91.0	389778.0	-8743.0	-5701349.0
16	15	3	40	608	95.0	362707.0	-9322.0	-5701336.0
16	15	3	40	609	96.0	276823.0	-9916.0	-5701657.0
16	15	3	40	609	97.0	204283.0	-10134.0	-5700872.0
16	15	3	40	609	98.0	67629.0	-10096.0	-5700119.0
16	15	3	40	609	99.0	-79739.0	-9939.0	-5700402.0
16	15	3	40	610	100.0	-198192.0	-9821.0	-5701483.0
16	15	3	40	628	101.0	-298849.0	-9986.0	-5700922.0
16	15	3	40	646	102.0	-339330.0	-9297.0	-5700151.0
16	15	3	40	646	103.0	-348976.0	-7646.0	-5700537.0
16	15	3	40	647	104.0	-352167.0	-6971.0	-5701402.0
16	15	3	40	647	105.0	-304384.0	-7121.0	-5700795.0
16	15	3	40	647	106.0	-210285.0	-7042.0	-5700014.0
16	15	3	40	648	107.0	-120895.0	-6829.0	-5700456.0
16	15	3	40	648	108.0	-64668.0	-6127.0	-5701704.0
16	15	3	40	648	109.0	-45837.0	-6179.0	-5701203.0
16	15	3	40	648	110.0	-58236.0	-5707.0	-5700415.0
16	15	3	40	649	111.0	-103303.0	-5382.0	-5700410.0
16	15	3	40	649	112.0	-167595.0	-5064.0	-5701742.0
16	15	3	40	649	113.0	-183139.0	-4556.0	-5701416.0
16	15	3	40	650	114.0	-220106.0	-4449.0	-5700609.0
16	15	3	40	650	115.0	-331093.0	-3370.0	-5700177.0
16	15	3	40	650	117.0	-499727.0	-1484.0	-5701362.0
16	15	3	40	651	118.0	-491879.0	-1032.0	-5700543.0
16	15	3	40	673	119.0	-432244.0	-522.0	-5700098.0
16	15	3	40	685	120.0	-341824.0	1601.0	-5701152.0
16	15	3	40	685	121.0	-241479.0	3585.0	-5701331.0
16	15	3	40	686	122.0	-134681.0	6149.0	-5700522.0
16	15	3	40	686	123.0	-32741.0	9166.0	-5700219.0
16	15	3	40	686	124.0	84630.0	13042.0	-5701514.0
16	15	3	40	687	125.0	202958.0	17316.0	-5701509.0
16	15	3	40	687	126.0	293196.0	21429.0	-5700683.0
16	15	3	40	687	127.0	321019.0	25558.0	-5700292.0
16	15	3	40	687	128.0	327207.0	30318.0	-5701518.0
16	15	3	40	688	129.0	362016.0	35438.0	-5701614.0
16	15	3	40	688	130.0	427173.0	40043.0	-5700809.0
16	15	3	40	688	131.0	463615.0	45013.0	-5700116.0
16	15	3	40	689	132.0	451712.0	50557.0	-5700727.0
16	15	3	40	689	133.0	410678.0	55864.0	-5701516.0
16	15	3	40	689	134.0	321833.0	61161.0	-5700799.0
16	15	3	40	689	140.0	370958.0	95921.0	-5700766.0
16	15	3	40	690	141.0	458196.0	101194.0	-5701417.0
16	15	3	40	690	142.0	534324.0	106807.0	-5700729.0
16	15	3	40	690	143.0	620204.0	112271.0	-5700111.0
16	15	3	40	691	144.0	754214.0	118407.0	-5701167.0
16	15	3	40	705	145.0	791711.0	124549.0	-5701577.0
16	15	3	40	724	146.0	715084.0	130274.0	-5700826.0
16	15	3	40	724	147.0	646207.0	135769.0	-5700000.0
16	15	3	40	725	148.0	598483.0	141776.0	-5700156.0
16	15	3	40	725	149.0	561681.0	147500.0	-5701238.0
16	15	3	40	726	150.0	496873.0	152276.0	-5700738.0
16	15	3	40	726	151.0	402072.0	157187.0	-5699911.0
16	15	3	40	726	152.0	322013.0	161496.0	-5700021.0
16	15	3	40	727	153.0	258057.0	165273.0	-5700956.0
16	15	3	40	727	154.0	230195.0	169010.0	-5700451.0
16	15	3	40	727	155.0	182543.0	171952.0	-5699671.0
16	15	3	40	728	156.0	126490.0	174738.0	-5700310.0
16	15	3	40	728	157.0	120160.0	176675.0	-5701212.0
16	15	3	40	746	158.0	131565.0	178484.0	-5700620.0
16	15	3	40	746	159.0	135212.0	179884.0	-5699811.0
16	15	3	40	747	160.0	126226.0	181161.0	-5700254.0
16	15	3	40	747	162.0	-27059.0	181000.0	-5700583.0
16	15	3	40	747	163.0	-193996.0	179304.0	-5699717.0
16	15	3	40	747	164.0	-453994.0	177236.0	-5699744.0
16	15	3	40	748	165.0	-742556.0	175830.0	-5700824.0
16	15	3	40	748	166.0	-1258076.0	174624.0	-5700359.0
16	15	3	40	748	167.0	-1964109.0	173164.0	-5699490.0
16	15	3	40	749	168.0	-2234344.0	170551.0	-5699227.0
16	15	3	40	810	169.0	-1767329.0	167635.0	-5700532.0
16	15	3	40	810	170.0	-874099.0	165011.0	-5700481.0
16	15	3	40	811	171.0	197574.0	162505.0	-5699821.0
16	15	3	40	812	172.0	949131.0	158854.0	-5699732.0
16	15	3	40	812	173.0	1306563.0	154824.0	-5701012.0
16	15	3	40	812	174.0	1364096.0	150831.0	-5700762.0
16	15	3	40	813	175.0	1217973.0	147113.0	-5699968.0
16	15	3	40	813	176.0	966836.0	142555.0	-5699796.0
16	15	3	40	814	177.0	640789.0	138176.0	-5701141.0
16	15	3	40	837	178.0	309099.0	134058.0	-5700825.0
16	15	3	40	838	179.0	32034.0	129688.0	-5700000.0
16	15	3	40	838	180.0	-202804.0	124953.0	-5699359.0
16	15	3	40	838	181.0	-369723.0	120118.0	-5700406.0
16	15	3	40	839	182.0	-476374.0	114961.0	-5700594.0
16	15	3	40	839	183.0	-526772.0	109751.0	-5699872.0
16	15	3	40	840	207.0	-843267.0	-11263.0	-5701394.0
16	15	3	40	840	208.0	-752548.0	-17424.0	-5700599.0
16	15	3	40	840	209.0	-610049.0	-22798.0	-5700124.0
16	15	3	40	841	210.0	-456594.0	-27507.0	-5701292.0
16	15	3	40	841	211.0	-309882.0	-32208.0	-5701462.0
16	15	3	40	842	212.0	-182169.0	-36589.0	-5700736.0
16	15	3	40	894	213.0	-74930.0	-41131.0	-5700127.0
16	15	3	40	895	214.0	14284.0	-45482.0	-5700936.0
16	15	3	40	895	215.0	88866.0	-48891.0	-5701395.0
16	15	3	40	895	216.0	158448.0	-52563.0	-5700676.0
16	15	3	40	895	217.0	218591.0	-56574.0	-5700042.0
16	15	3	40	896	218.0	268086.0	-59981.0	-5700995.0
16	15	3	40	896	219.0	314286.0	-63179.0	-5701606.0
16	15	3	40	896	220.0	360264.0	-65969.0	-5700912.0
16	15	3	40	897	221.0	409814.0	-69028.0	-5700254.0
16	15	3	40	935	222.0	458417.0	-71692.0	-5700979.0
16	15	3	40	935	223.0	512769.0	-74555.0	-5701344.0
16	15	3	40	935	224.0	555723.0	-77631.0	-5700660.0
16	15	3	40	935	225.0	565393.0	-79656.0	-5700154.0
16	15	3	40	936	226.0	526100.0	-81322.0	-5701474.0
16	15	3	40	936	227.0	453596.0	-82292.0	-5701617.0
16	15	3	40	936	229.0	318518.0	-84519.0	-5700134.0
16	15	3	40	936	230.0	265225.0	-85876.0	-5700325.0
16	15	3	40	936	231.0	224117.0	-87101.0	-5701389.0
16	15	3	40	937	232.0	197467.0	-87422.0	-5700904.0
16	15	3	40	937	233.0	184848.0	-87086.0	-5700074.0
16	15	3	40	937	234.0	185899.0	-85766.0	-5700462.0
16	15	3	40	937	235.0	195888.0	-84703.0	-5701629.0
16	15	3	40	938	236.0	208858.0	-83869.0	-5701151.0
16	15	3	40	938	237.0	226111.0	-83422.0	-5700336.0
16	15	3	40	938	252.0	368942.0	-60367.0	-5701204.0
16	15	3	40	938	253.0	308989.0	-58606.0	-5700422.0
16	15	3	40	939	254.0	246624.0	-57344.0	-5700149.0
16	15	3	40	939	255.0	191093.0	-55521.0	-5701479.0
16	15	3	40	939	0.0	121216.0	-53959.0	-5701319.0
16	15	3	40	939	1.0	55635.0	-52227.0	-5700573.0
16	15	3	40	972	2.0	10721.0	-50046.0	-5699839.0
16	15	3	40	973	3.0	-26517.0	-48372.0	-5700477.0
16	15	3	40	973	4.0	-50792.0	-46146.0	-5701174.0
16	15	3	40	973	5.0	-71717.0	-43855.0	-5700497.0
16	15	3	40	973	6.0	-73229.0	-42837.0	-5699773.0
16	15	3	40	974	7.0	-56667.0	-41405.0	-5700494.0
16	15	3	40	974	8.0	-33777.0	-39782.0	-5700801.0
16	15	3	40	974	9.0	-8796.0	-38968.0	-5700122.0
16	15	3	40	974	10.0	12479.0	-38192.0	-5699488.0
16	15	3	40	974	11.0	29676.0	-37355.0	-5700539.0
16	15	3	40	975	12.0	25149.0	-36251.0	-5700716.0
16	15	3	40	975	13.0	7281.0	-35621.0	-5700004.0
16	15	3	40	975	14.0	-10421.0	-35850.0	-5699377.0
16	15	3	40	975	15.0	-18538.0	-35834.0	-5700639.0
16	15	3	40	976	16.0	-18048.0	-35477.0	-5700945.0
16	15	3	40	976	18.0	-9815.0	-35423.0	-5699409.0
16	15	3	40	976	19.0	2364.0	-36106.0	-5699836.0
16	15	3	40	976	20.0	17326.0	-37479.0	-5700752.0
16	15	3	40	977	21.0	58856.0	-37962.0	-5700186.0
16	15	3	40	977	22.0	133798.0	-38041.0	-5699391.0
16	15	3	40	977	23.0	222673.0	-39063.0	-5699517.0
16	15	3	40	977	24.0	284739.0	-39646.0	-5700752.0
16	15	3	41	10	25.0	303806.0	-40292.0	-5700304.0
16	15	3	41	10	26.0	285006.0	-40272.0	-5699531.0
16	15	3	41	10	27.0	253457.0	-40135.0	-5699703.0
16	15	3	41	11	28.0	203186.0	-40241.0	-5700784.0
16	15	3	41	11	29.0	135312.0	-40717.0	-5700312.0
16	15	3	41	11	30.0	61915.0	-41956.0	-5699518.0
16	15	3	41	11	31.0	-12945.0	-42791.0	-5699651.0
16	15	3	41	12	32.0	-119130.0	-43091.0	-5700663.0
16	15	3	41	12	33.0	-267159.0	-44339.0	-5700157.0
16	15	3	41	12	34.0	-418627.0	-44966.0	-5699336.0
16	15	3	41	12	35.0	-550846.0	-46059.0	-5698862.0
16	15	3	41	13	36.0	-648741.0	-46726.0	-5699982.0
16	15	3	41	13	37.0	-704126.0	-47575.0	-5699864.0
16	15	3	41	13	38.0	-723242.0	-48616.0	-5699127.0
16	15	3	41	13	39.0	-712962.0	-49280.0	-5698792.0
16	15	3	41	14	41.0	-667402.0	-51555.0	-5699848.0
16	15	3	41	14	42.0	-625844.0	-53279.0	-5699146.0
16	15	3	41	14	43.0	-577037.0	-54984.0	-5698748.0
16	15	3	41	14	44.0	-527612.0	-55827.0	-5700047.0
16	15	3	41	15	45.0	-481363.0	-56315.0	-5699927.0
16	15	3	41	15	46.0	-438134.0	-56836.0	-5699201.0
16	15	3	41	50	47.0	-408519.0	-57165.0	-5699157.0
16	15	3	41	50	48.0	-388154.0	-57301.0	-5700367.0
16	15	3	41	50	49.0	-369171.0	-56307.0	-5699852.0
16	15	3	41	51	50.0	-337837.0	-55779.0	-5699138.0
16	15	3	41	51	51.0	-283052.0	-55641.0	-5698420.0
16	15	3	41	51	52.0	-181599.0	-55451.0	-5699349.0
16	15	3	41	51	53.0	-56619.0	-55711.0	-5699611.0
16	15	3	41	52	54.0	91794.0	-56359.0	-5698961.0
16	15	3	41	52	55.0	234660.0	-56970.0	-5698361.0
16	15	3	41	52	56.0	366251.0	-56685.0	-5699027.0
16	15	3	41	52	57.0	453818.0	-57201.0	-5698804.0
16	15	3	41	53	58.0	476559.0	-57554.0	-5698347.0
16	15	3	41	53	59.0	438875.0	-57934.0	-5699491.0
16	15	3	41	53	60.0	338074.0	-57936.0	-5699716.0
16	15	3	41	53	61.0	173794.0	-57904.0	-5698912.0
16	15	3	41	54	63.0	-305488.0	-57118.0	-5699135.0
16	15	3	41	54	64.0	-532811.0	-57682.0	-5699711.0
16	15	3	41	54	65.0	-708912.0	-58792.0	-5698894.0
16	15	3	41	54	66.0	-841924.0	-59128.0	-5698194.0
16	15	3	41	54	67.0	-917442.0	-58950.0	-5698413.0
16	15	3	41	55	68.0	-865482.0	-58723.0	-5699593.0
16	15	3	41	55	69.0	-712375.0	-58338.0	-5698980.0
16	15	3	41	89	70.0	-396379.0	-57805.0	-5698335.0
16	15	3	41	90	71.0	106312.0	-56697.0	-5697928.0
16	15	3	41	90	72.0	694013.0	-54959.0	-5699364.0
16	15	3	41	90	73.0	1218909.0	-54191.0	-5699467.0
16	15	3	41	91	74.0	1546437.0	-53952.0	-5698802.0
16	15	3	41	91	75.0	1651281.0	-52927.0	-5698204.0
16	15	3	41	91	76.0	1601798.0	-52022.0	-5699293.0
16	15	3	41	91	77.0	1437727.0	-51472.0	-5699689.0
16	15	3	41	92	78.0	1101791.0	-50799.0	-5698936.0
16	15	3	41	92	79.0	597363.0	-49971.0	-5698176.0
16	15	3	41	92	80.0	29220.0	-48237.0	-5698890.0
16	15	3	41	92	81.0	-505849.0	-46603.0	-5699268.0
16	15	3	41	92	82.0	-980274.0	-46159.0	-5698539.0
16	15	3	41	93	83.0	-1365325.0	-44946.0	-5698067.0
16	15	3	41	93	84.0	-1614287.0	-44272.0	-5699486.0
16	15	3	41	93	86.0	-1697587.0	-43684.0	-5698659.0
16	15	3	41	93	87.0	-1589161.0	-43450.0	-5698013.0
16	15	3	41	94	88.0	-1401529.0	-43197.0	-5698790.0
16	15	3	41	94	89.0	-1158936.0	-42086.0	-5699201.0
16	15	3	41	94	90.0	-907364.0	-41014.0	-5698554.0
16	15	3	41	94	91.0	-686441.0	-40081.0	-5699081.0
16	15	3	41	129	92.0	-495701.0	-39263.0	-5700062.0
16	15	3	41	129	93.0	-364121.0	-38264.0	-5699392.0
16	15	3	41	129	94.0	-280444.0	-36208.0	-5698706.0
16	15	3	41	129	95.0	-220452.0	-35703.0	-5699042.0
16	15	3	41	130	96.0	-142796.0	-34852.0	-5700335.0
16	15	3	41	130	97.0	-29394.0	-33601.0	-5699732.0
16	15	3	41	130	98.0	114971.0	-32522.0	-5699026.0
16	15	3	41	130	99.0	264036.0	-32071.0	-5698627.0
16	15	3	41	169	100.0	367336.0	-31047.0	-5699994.0
16	15	3	41	169	101.0	402516.0	-30224.0	-5699911.0
16	15	3	41	169	102.0	374453.0	-29165.0	-5699138.0
16	15	3	41	170	103.0	294327.0	-28287.0	-5698584.0
16	15	3	41	170	104.0	194723.0	-26904.0	-5699721.0
16	15	3	41	170	105.0	98101.0	-26651.0	-5700002.0
16	15	3	41	170	106.0	25571.0	-26031.0	-5699265.0
16	15	3	41	171	108.0	15721.0	-24272.0	-5699641.0
16	15	3	41	171	109.0	80949.0	-24264.0	-5700010.0
16	15	3	41	171	110.0	150036.0	-24399.0	-5699287.0
16	15	3	41	171	111.0	202569.0	-23539.0	-5698652.0
16	15	3	41	172	112.0	240336.0	-22593.0	-5699455.0
16	15	3	41	172	113.0	261064.0	-21377.0	-5700167.0
16	15	3	41	172	114.0	273956.0	-20482.0	-5699436.0
16	15	3	41	173	115.0	254775.0	-19901.0	-5698699.0
16	15	3	41	173	116.0	226907.0	-18907.0	-5698444.0
16	15	3	41	211	117.0	201376.0	-17107.0	-5699144.0
16	15	3	41	211	118.0	193613.0	-16152.0	-5698595.0
16	15	3	41	211	119.0	195014.0	-14901.0	-5698366.0
16	15	3	41	212	120.0	189479.0	-14594.0	-5699703.0
16	15	3	41	212	121.0	194753.0	-13892.0	-5699577.0
16	15	3	41	212	122.0	203234.0	-12937.0	-5698792.0
16	15	3	41	213	123.0	207703.0	-12458.0	-5698380.0
16	15	3	41	213	124.0	202808.0	-11906.0	-5699503.0
16	15	3	41	213	125.0	201424.0	-10817.0	-5699526.0
16	15	3	41	213	126.0	175445.0	-10414.0	-5698732.0
16	15	3	41	214	127.0	117031.0	-9891.0	-5698310.0
16	15	3	41	214	128.0	41679.0	-8765.0	-5699524.0
16	15	3	41	214	129.0	-44636.0	-8227.0	-5699767.0
16	15	3	41	214	131.0	-129088.0	-7361.0	-5698287.0
16	15	3	41	215	132.0	-92210.0	-7557.0	-5698727.0
16	15	3	41	215	133.0	-70339.0	-7257.0	-5699661.0
16	15	3	41	215	134.0	-82147.0	-6809.0	-5698934.0
16	15	3	41	215	135.0	-99054.0	-6487.0	-5698259.0
16	15	3	41	216	136.0	-80111.0	-5811.0	-5698462.0
16	15	3	41	253	137.0	-55241.0	-4746.0	-5699529.0
16	15	3	41	253	138.0	-35666.0	-2820.0	-5698919.0
16	15	3	41	253	139.0	-15624.0	-737.0	-5698259.0
16	15	3	41	254	140.0	10299.0	981.0	-5698639.0
16	15	3	41	254	141.0	-16986.0	2940.0	-5699704.0
16	15	3	41	254	142.0	-77554.0	4863.0	-5699041.0
16	15	3	41	254	143.0	-119098.0	6968.0	-5698347.0
16	15	3	41	255	144.0	-135982.0	9378.0	-5698526.0
16	15	3	41	255	145.0	-119107.0	12343.0	-5699562.0
16	15	3	41	255	146.0	-43516.0	14821.0	-5698939.0
16	15	3	41	255	147.0	16845.0	17596.0	-5698162.0
16	15	3	41	256	148.0	15714.0	20626.0	-5698215.0
16	15	3	41	256	149.0	-49647.0	25059.0	-5699477.0
16	15	3	41	256	150.0	-128346.0	29629.0	-5699017.0
16	15	3	41	256	151.0	-205344.0	33910.0	-5698204.0
16	15	3	41	257	153.0	-346950.0	43886.0	-5698943.0
16	15	3	41	257	154.0	-399944.0	47852.0	-5699169.0
16	15	3	41	257	155.0	-403556.0	52078.0	-5698353.0
16	15	3	41	257	156.0	-401297.0	57957.0	-5698019.0
16	15	3	41	258	157.0	-375022.0	63811.0	-5699334.0
16	15	3	41	258	158.0	-294361.0	69691.0	-5699312.0
16	15	3	41	258	159.0	-197973.0	76153.0	-5698537.0
16	15	3	41	258	160.0	-99917.0	82687.0	-5697944.0
16	15	3	41	259	161.0	-13312.0	90409.0	-5698761.0
16	15	3	41	296	162.0	78169.0	99153.0	-5699544.0
16	15	3	41	296	163.0	138834.0	106353.0	-5698768.0
16	15	3	41	297	164.0	144349.0	113449.0	-5698074.0
16	15	3	41	297	165.0	131948.0	120109.0	-5697808.0
16	15	3	41	297	166.0	129724.0	126163.0	-5699107.0
16	15	3	41	297	167.0	142105.0	132943.0	-5698711.0
16	15	3	41	298	168.0	165229.0	139945.0	-5697993.0
16	15	3	41	298	169.0	178156.0	146346.0	-5698059.0
16	15	3	41	298	170.0	170543.0	152751.0	-5699501.0
16	15	3	41	298	171.0	159669.0	159164.0	-5699005.0
16	15	3	41	299	172.0	158621.0	164803.0	-5698291.0
16	15	3	41	299	173.0	177976.0	169503.0	-5697721.0
16	15	3	41	299	174.0	214134.0	173758.0	-5698567.0
16	15	3	41	299	176.0	356628.0	181239.0	-5697846.0
16	15	3	41	341	177.0	407619.0	183558.0	-5698737.0
16	15	3	41	342	178.0	418041.0	186138.0	-5699361.0
16	15	3	41	342	179.0	389646.0	188529.0	-5698556.0
16	15	3	41	342	180.0	358251.0	190811.0	-5697863.0
16	15	3	41	342	181.0	334756.0	192480.0	-5698016.0
16	15	3	41	343	182.0	317656.0	194748.0	-5699024.0
16	15	3	41	343	183.0	293578.0	196288.0	-5698406.0
16	15	3	41	343	184.0	251719.0	196328.0	-5697711.0
16	15	3	41	343	185.0	199543.0	196661.0	-5697701.0
16	15	3	41	344	186.0	137523.0	196598.0	-5698939.0
16	15	3	41	344	187.0	75762.0	195317.0	-5698447.0
16	15	3	41	344	188.0	-2253.0	193419.0	-5697748.0
16	15	3	41	345	189.0	-88527.0	191748.0	-5698332.0
16	15	3	41	345	190.0	-179114.0	189929.0	-5699377.0
16	15	3	41	345	191.0	-275816.0	187323.0	-5698724.0
16	15	3	41	345	198.0	-1442996.0	160512.0	-5698807.0
16	15	3	41	345	199.0	-575668.0	154936.0	-5698889.0
16	15	3	41	346	200.0	459335.0	149068.0	-5698227.0
16	15	3	41	346	201.0	1321409.0	144598.0	-5697744.0
16	15	3	41	346	202.0	1597939.0	139963.0	-5698714.0
16	15	3	41	347	203.0	1441149.0	135663.0	-5699129.0
16	15	3	41	347	204.0	1120961.0	131246.0	-5698329.0
16	15	3	41	387	205.0	735888.0	126326.0	-5698090.0
16	15	3	41	387	206.0	358951.0	122443.0	-5699441.0
16	15	3	41	387	207.0	20941.0	119309.0	-5699281.0
16	15	3	41	388	208.0	-240854.0	115686.0	-5698454.0
16	15	3	41	388	209.0	-432990.0	111354.0	-5698080.0
16	15	3	41	388	210.0	-546279.0	106704.0	-5699447.0
16	15	3	41	388	211.0	-592805.0	102142.0	-5699577.0
16	15	3	41	389	212.0	-598135.0	97816.0	-5698774.0
16	15	3	41	389	213.0	-570979.0	93315.0	-5698154.0
16	15	3	41	389	214.0	-519713.0	88979.0	-5698732.0
16	15	3	41	389	215.0	-418856.0	84231.0	-5699562.0
16	15	3	41	390	216.0	-208317.0	79453.0	-5698861.0
16	15	3	41	390	217.0	39865.0	74691.0	-5698267.0
16	15	3	41	390	218.0	216011.0	69837.0	-5699064.0
16	15	3	41	390	219.0	271011.0	65339.0	-5700096.0
16	15	3	41	391	221.0	193972.0	55954.0	-5698662.0
16	15	3	41	391	222.0	153386.0	50406.0	-5698795.0
16	15	3	41	391	223.0	135535.0	45688.0	-5700024.0
16	15	3	41	391	224.0	134579.0	40796.0	-5699464.0
16	15	3	41	392	225.0	162722.0	36260.0	-5698759.0
16	15	3	41	392	226.0	202036.0	31196.0	-5698648.0
16	15	3	41	433	227.0	221501.0	26178.0	-5699929.0
16	15	3	41	433	228.0	218153.0	22510.0	-5699545.0
16	15	3	41	433	229.0	197184.0	19675.0	-5698796.0
16	15	3	41	433	230.0	177309.0	14975.0	-5698171.0
16	15	3	41	434	231.0	168623.0	10670.0	-5699207.0
16	15	3	41	434	232.0	165091.0	6239.0	-5699861.0
16	15	3	41	434	233.0	162391.0	995.0	-5699154.0
16	15	3	41	434	234.0	141793.0	-4097.0	-5698495.0
16	15	3	41	435	235.0	121408.0	-8644.0	-5699390.0
16	15	3	41	435	236.0	92731.0	-13549.0	-5700156.0
16	15	3	41	435	237.0	74273.0	-18556.0	-5699458.0
16	15	3	41	435	238.0	58630.0	-23267.0	-5698852.0
16	15	3	41	436	239.0	58702.0	-28256.0	-5699779.0
16	15	3	41	436	240.0	71468.0	-32928.0	-5700161.0
16	15	3	41	436	241.0	80474.0	-37866.0	-5699398.0
16	15	3	41	436	243.0	138320.0	-47892.0	-5698369.0
16	15	3	41	437	244.0	183538.0	-53865.0	-5699279.0
16	15	3	41	437	245.0	233310.0	-59404.0	-5698836.0
16	15	3	41	437	246.0	268003.0	-64165.0	-5698463.0
16	15	3	41	438	247.0	271106.0	-68316.0	-5699707.0
16	15	3	41	438	248.0	258042.0	-71884.0	-5699802.0
16	15	3	41	478	249.0	264457.0	-75452.0	-5699027.0
16	15	3	41	479	250.0	270432.0	-78682.0	-5698659.0
16	15	3	41	479	251.0	293653.0	-80447.0	-5699951.0
16	15	3	41	479	252.0	336724.0	-83228.0	-5700059.0
16	15	3	41	479	253.0	367256.0	-85912.0	-5699281.0
16	15	3	41	480	254.0	379540.0	-88218.0	-5698677.0
16	15	3	41	480	255.0	385582.0	-90309.0	-5699593.0
16	15	3	41	480	0.0	370941.0	-92649.0	-5700239.0
16	15	3	41	480	1.0	362188.0	-94864.0	-5699456.0
16	15	3	41	481	2.0	362396.0	-96259.0	-5698785.0
16	15	3	41	481	3.0	377914.0	-98197.0	-5699121.0
16	15	3	41	481	4.0	398141.0	-99844.0	-5700197.0
16	15	3	41	482	5.0	410541.0	-100465.0	-5699510.0
16	15	3	41	482	6.0	395276.0	-100874.0	-5698801.0
16	15	3	41	482	7.0	351278.0	-102052.0	-5698690.0
16	15	3	41	483	10.0	181631.0	-103717.0	-5698949.0
16	15	3	41	483	11.0	106141.0	-105049.0	-5699413.0
16	15	3	41	484	12.0	75972.0	-105505.0	-5700587.0
16	15	3	41	484	13.0	31643.0	-104822.0	-5699933.0
16	15	3	41	485	14.0	-16048.0	-104250.0	-5699221.0
16	15	3	41	485	15.0	-30586.0	-103297.0	-5698931.0
16	15	3	41	485	16.0	-7682.0	-101911.0	-5700401.0
16	15	3	41	485	17.0	45273.0	-99765.0	-5700183.0
16	15	3	41	486	18.0	46195.0	-96928.0	-5699469.0
16	15	3	41	486	19.0	72054.0	-95403.0	-5698830.0
16	15	3	41	486	20.0	93644.0	-94009.0	-5699832.0
16	15	3	41	527	21.0	109774.0	-92750.0	-5700024.0
16	15	3	41	527	22.0	135108.0	-91717.0	-5699284.0
16	15	3	41	527	23.0	150119.0	-90306.0	-5698593.0
16	15	3	41	528	24.0	133269.0	-88805.0	-5699447.0
16	15	3	41	528	25.0	122104.0	-86730.0	-5700191.0
16	15	3	41	528	26.0	119478.0	-86020.0	-5699461.0
16	15	3	41	528	27.0	99431.0	-84602.0	-5698751.0
16	15	3	41	529	28.0	95077.0	-82981.0	-5698817.0
16	15	3	41	529	29.0	85647.0	-81132.0	-5699317.0
16	15	3	41	529	30.0	72324.0	-79445.0	-5698675.0
16	15	3	41	529	32.0	88733.0	-78314.0	-5699812.0
16	15	3	41	529	33.0	71315.0	-78722.0	-5699319.0
16	15	3	41	530	34.0	42708.0	-78084.0	-5698567.0
16	15	3	41	530	35.0	15645.0	-77268.0	-5698116.0
16	15	3	41	530	36.0	678.0	-76391.0	-5699394.0
16	15	3	41	530	37.0	-12925.0	-75706.0	-5699456.0
16	15	3	41	576	38.0	-100006.0	-75152.0	-5698667.0
16	15	3	41	576	39.0	-129086.0	-74606.0	-5698047.0
16	15	3	41	576	40.0	-101453.0	-72524.0	-5698782.0
16	15	3	41	577	41.0	-31409.0	-70834.0	-5699295.0
16	15	3	41	577	42.0	48220.0	-69909.0	-5698534.0
16	15	3	41	577	43.0	39281.0	-69351.0	-5698110.0
16	15	3	41	578	44.0	-6932.0	-69007.0	-5699249.0
16	15	3	41	578	45.0	-50278.0	-68057.0	-5699324.0
16	15	3	41	578	46.0	-109662.0	-67412.0	-5698530.0
16	15	3	41	578	47.0	-131014.0	-67213.0	-5697984.0
16	15	3	41	579	48.0	-140609.0	-67187.0	-5699037.0
16	15	3	41	579	49.0	-161564.0	-66600.0	-5699596.0
16	15	3	41	579	50.0	-150966.0	-66422.0	-5698799.0
16	15	3	41	579	51.0	-153648.0	-66609.0	-5698139.0
16	15	3	41	580	52.0	-168394.0	-66794.0	-5698742.0
16	15	3	41	580	54.0	-215573.0	-66976.0	-5698839.0
16	15	3	41	580	55.0	-239504.0	-68382.0	-5698172.0
16	15	3	41	580	56.0	-291552.0	-69855.0	-5698340.0
16	15	3	41	581	57.0	-282439.0	-70145.0	-5699602.0
16	15	3	41	581	58.0	-260877.0	-70542.0	-5699040.0
16	15	3	41	581	59.0	-239534.0	-70415.0	-5698358.0
16	15	3	41	582	60.0	-212679.0	-70698.0	-5698394.0
16	15	3	41	582	61.0	-218736.0	-70872.0	-5699771.0
16	15	3	41	582	62.0	-200901.0	-70595.0	-5699287.0
16	15	3	41	582	63.0	-189086.0	-68968.0	-5698561.0
16	15	3	41	583	64.0	-206893.0	-68986.0	-5698331.0
16	15	3	41	625	65.0	-214831.0	-68989.0	-5699621.0
16	15	3	41	625	66.0	-227791.0	-69006.0	-5699261.0
16	15	3	41	626	67.0	-242979.0	-69512.0	-5698520.0
16	15	3	41	626	68.0	-235183.0	-69644.0	-5697974.0
16	15	3	41	626	69.0	-228188.0	-69097.0	-5699023.0
16	15	3	41	626	70.0	-202814.0	-69497.0	-5699298.0
16	15	3	41	626	71.0	-149985.0	-69812.0	-5698556.0
16	15	3	41	627	72.0	-99672.0	-69460.0	-5698036.0
16	15	3	41	627	73.0	-79151.0	-69102.0	-5699132.0
16	15	3	41	627	74.0	-81671.0	-68744.0	-5699276.0
16	15	3	41	627	75.0	-89287.0	-68208.0	-5698538.0
16	15	3	41	628	77.0	-118353.0	-68375.0	-5699722.0
16	15	3	41	628	78.0	-140304.0	-69036.0	-5699866.0
16	15	3	41	675	79.0	-165774.0	-68575.0	-5699077.0
16	15	3	41	675	80.0	-155226.0	-66466.0	-5698465.0
16	15	3	41	676	99.0	-367394.0	-50106.0	-5699026.0
16	15	3	41	676	100.0	-560326.0	-50388.0	-5698319.0
16	15	3	41	676	101.0	-777854.0	-51264.0	-5698771.0
16	15	3	41	677	102.0	-1009642.0	-50789.0	-5699716.0
16	15	3	41	677	103.0	-1170658.0	-50122.0	-5699012.0
16	15	3	41	677	104.0	-1217095.0	-49155.0	-5698289.0
16	15	3	41	677	105.0	-1105326.0	-47879.0	-5698160.0
16	15	3	41	678	106.0	-815998.0	-46642.0	-5699489.0
16	15	3	41	678	107.0	-362545.0	-44824.0	-5699150.0
16	15	3	41	678	108.0	209021.0	-41525.0	-5698494.0
16	15	3	41	678	109.0	810966.0	-40042.0	-5698792.0
16	15	3	41	679	110.0	1343963.0	-38966.0	-5699892.0
16	15	3	41	679	111.0	1662646.0	-37618.0	-5699278.0
16	15	3	41	679	112.0	1753247.0	-36326.0	-5698579.0
16	15	3	41	680	113.0	1643051.0	-34888.0	-5699159.0
16	15	3	41	680	114.0	1354045.0	-33302.0	-5700069.0
16	15	3	41	680	115.0	929070.0	-32051.0	-5699351.0
16	15	3	41	680	116.0	425486.0	-30839.0	-5698512.0
16	15	3	41	681	117.0	-68600.0	-29993.0	-5698303.0
16	15	3	41	681	118.0	-507952.0	-28907.0	-5699564.0
16	15	3	41	681	119.0	-859524.0	-28190.0	-5699279.0
16	15	3	41	682	120.0	-1084376.0	-27776.0	-5698437.0
16	15	3	41	682	122.0	-1086215.0	-26669.0	-5699746.0
16	15	3	41	682	123.0	-940631.0	-27339.0	-5699469.0
16	15	3	41	682	124.0	-751145.0	-27802.0	-5698708.0
16	15	3	41	683	125.0	-534969.0	-26799.0	-5698332.0
16	15	3	41	683	126.0	-308102.0	-25866.0	-5699640.0
16	15	3	41	727	127.0	-106526.0	-25353.0	-5699792.0
16	15	3	41	727	128.0	31432.0	-24687.0	-5698993.0
16	15	3	41	727	129.0	75921.0	-23446.0	-5698534.0
16	15	3	41	728	130.0	54244.0	-20197.0	-5699603.0
16	15	3	41	728	131.0	16326.0	-18600.0	-5699767.0
16	15	3	41	728	132.0	8378.0	-17675.0	-5698935.0
16	15	3	41	728	133.0	33813.0	-16376.0	-5698354.0
16	15	3	41	729	134.0	79701.0	-15197.0	-5699076.0
16	15	3	41	729	135.0	123603.0	-13947.0	-5699790.0
16	15	3	41	729	136.0	149965.0	-13331.0	-5699054.0
16	15	3	41	729	137.0	151733.0	-12306.0	-5698429.0
16	15	3	41	730	138.0	125088.0	-12012.0	-5699148.0
16	15	3	41	730	139.0	60698.0	-11262.0	-5699825.0
16	15	3	41	730	140.0	-18657.0	-10251.0	-5699052.0
16	15	3	41	730	141.0	-96067.0	-9556.0	-5698527.0
16	15	3	41	731	142.0	-154624.0	-9224.0	-5699542.0
16	15	3	41	731	144.0	-164827.0	-8197.0	-5699022.0
16	15	3	41	732	145.0	-119459.0	-8481.0	-5698359.0
16	15	3	41	781	146.0	-47211.0	-9444.0	-5699127.0
16	15	3	41	781	147.0	3774.0	-8843.0	-5699789.0
16	15	3	41	782	148.0	-2740.0	-8534.0	-5699092.0
16	15	3	41	782	149.0	-48851.0	-7937.0	-5698364.0
16	15	3	41	782	150.0	-117454.0	-7256.0	-5698673.0
16	15	3	41	783	151.0	-175519.0	-6640.0	-5699765.0
16	15	3	41	783	152.0	-212575.0	-5511.0	-5699240.0
16	15	3	41	783	153.0	-212830.0	-2291.0	-5698451.0
16	15	3	41	783	154.0	-199103.0	-1234.0	-5698265.0
16	15	3	41	784	155.0	-196066.0	-317.0	-5699393.0
16	15	3	41	784	156.0	-204657.0	631.0	-5699089.0
16	15	3	41	784	157.0	-216819.0	1394.0	-5698310.0
16	15	3	41	785	158.0	-192736.0	2162.0	-5698414.0
16	15	3	41	785	159.0	-156463.0	3057.0	-5699607.0
16	15	3	41	785	160.0	-138659.0	3883.0	-5699201.0
16	15	3	41	785	161.0	-121766.0	4288.0	-5698392.0
16	15	3	41	786	162.0	-106578.0	5189.0	-5698809.0
16	15	3	41	786	163.0	-92245.0	6050.0	-5699985.0
16	15	3	41	786	164.0	-69061.0	6724.0	-5699496.0
16	15	3	41	786	165.0	-28969.0	7515.0	-5698673.0
16	15	3	41	787	167.0	55996.0	8748.0	-5699282.0
16	15	3	41	787	168.0	72210.0	7791.0	-5699466.0
16	15	3	41	787	169.0	87119.0	7710.0	-5698674.0
16	15	3	41	788	170.0	117591.0	8618.0	-5698407.0
16	15	3	41	788	171.0	148537.0	9991.0	-5699871.0
16	15	3	41	788	172.0	158180.0	11424.0	-5699924.0
16	15	3	41	835	173.0	160194.0	12896.0	-5699094.0
16	15	3	41	835	174.0	169524.0	14786.0	-5698541.0
16	15	3	41	836	175.0	189086.0	18568.0	-5699462.0
16	15	3	41	836	176.0	194556.0	21336.0	-5699883.0
16	15	3	41	836	177.0	192568.0	24078.0	-5699077.0
16	15	3	41	836	178.0	186473.0	26713.0	-5698385.0
16	15	3	41	837	179.0	153698.0	30153.0	-5698756.0
16	15	3	41	837	180.0	103069.0	33106.0	-5699840.0
16	15	3	41	837	181.0	57533.0	36579.0	-5699204.0
16	15	3	41	837	182.0	20572.0	40688.0	-5698465.0
16	15	3	41	838	183.0	-20688.0	45211.0	-5698975.0
16	15	3	41	838	184.0	-64177.0	49996.0	-5699822.0
16	15	3	41	838	185.0	-84732.0	54946.0	-5699194.0
16	15	3	41	839	186.0	-86307.0	60149.0	-5698444.0
16	15	3	41	839	187.0	-80412.0	65676.0	-5698939.0
16	15	3	41	839	189.0	-49230.0	78167.0	-5699083.0
16	15	3	41	839	190.0	-40610.0	83619.0	-5698337.0
16	15	3	41	840	191.0	-40264.0	88231.0	-5698622.0
16	15	3	41	840	192.0	-53589.0	95426.0	-5699644.0
16	15	3	41	840	193.0	-64147.0	102978.0	-5699088.0
16	15	3	41	841	194.0	-66743.0	110625.0	-5698300.0
16	15	3	41	841	195.0	-70961.0	118459.0	-5698057.0
16	15	3	41	890	196.0	-69419.0	126532.0	-5699357.0
16	15	3	41	890	197.0	-59829.0	135361.0	-5699236.0
16	15	3	41	891	198.0	-49434.0	145421.0	-5698420.0
16	15	3	41	891	199.0	-42124.0	154828.0	-5698052.0
16	15	3	41	891	200.0	-35608.0	163115.0	-5699335.0
16	15	3	41	892	201.0	-32091.0	170998.0	-5699466.0
16	15	3	41	892	202.0	-32684.0	178462.0	-5698626.0
16	15	3	41	892	203.0	-35459.0	185828.0	-5698328.0
16	15	3	41	893	204.0	-34616.0	193149.0	-5699570.0
16	15	3	41	893	205.0	-23400.0	199938.0	-5699537.0
16	15	3	41	893	206.0	-17102.0	206195.0	-5698716.0
16	15	3	41	894	207.0	-6239.0	212429.0	-5698267.0
16	15	3	41	894	208.0	11986.0	218510.0	-5699447.0
16	15	3	41	894	209.0	-3766.0	224009.0	-5699688.0
16	15	3	41	895	210.0	-38165.0	229082.0	-5698867.0
16	15	3	41	895	212.0	-43058.0	236783.0	-5699309.0
16	15	3	41	895	213.0	-37752.0	238176.0	-5700011.0
16	15	3	41	895	214.0	-27853.0	240364.0	-5699267.0
16	15	3	41	896	215.0	-14516.0	242308.0	-5698534.0
16	15	3	41	896	216.0	-3616.0	244461.0	-5698731.0
16	15	3	41	896	217.0	1046.0	246002.0	-5699993.0
16	15	3	41	897	218.0	3088.0	246985.0	-5699500.0
16	15	3	41	897	219.0	501.0	247714.0	-5698763.0
16	15	3	41	897	220.0	11083.0	249522.0	-5698978.0
16	15	3	41	898	221.0	24444.0	250079.0	-5700246.0
16	15	3	41	898	222.0	33194.0	249225.0	-5699755.0
16	15	3	41	898	223.0	40523.0	248199.0	-5699011.0
16	15	3	41	898	224.0	38472.0	245663.0	-5698996.0
16	15	3	41	899	225.0	27925.0	243859.0	-5700331.0
16	15	3	41	942	226.0	533.0	241331.0	-5700005.0
16	15	3	41	943	227.0	-38540.0	237863.0	-5699167.0
16	15	3	41	943	228.0	-85206.0	234689.0	-5698656.0
16	15	3	41	944	229.0	-127147.0	231312.0	-5699650.0
16	15	3	41	944	230.0	-174192.0	227521.0	-5699943.0
16	15	3	41	944	231.0	-228720.0	223583.0	-5699121.0
16	15	3	41	945	232.0	-290816.0	219039.0	-5698501.0
16	15	3	41	945	234.0	-445891.0	209869.0	-5699558.0
16	15	3	41	945	235.0	-652246.0	203490.0	-5698784.0
16	15	3	41	946	236.0	-998902.0	196639.0	-5698151.0
16	15	3	41	946	237.0	-1211552.0	190983.0	-5698881.0
16	15	3	41	946	238.0	-989699.0	185676.0	-5699635.0
16	15	3	41	947	239.0	-450228.0	180594.0	-5698968.0
16	15	3	41	947	240.0	206693.0	175269.0	-5698442.0
16	15	3	41	947	241.0	656251.0	169638.0	-5699266.0
16	15	3	41	947	242.0	806719.0	165278.0	-5699754.0
16	15	3	41	948	243.0	861188.0	161986.0	-5699001.0
16	15	3	41	948	244.0	853766.0	156901.0	-5698270.0
16	15	3	41	948	245.0	683542.0	151439.0	-5698448.0
16	15	3	41	949	246.0	430594.0	145866.0	-5699386.0
16	15	3	41	949	247.0	96245.0	140747.0	-5698802.0
16	15	3	41	949	248.0	-184736.0	135031.0	-5698022.0
16	15	3	41	949	249.0	-426582.0	129528.0	-5698241.0
16	15	3	41	950	250.0	-686821.0	124145.0	-5699498.0
16	15	3	41	950	251.0	-962234.0	119129.0	-5699017.0
16	15	3	41	950	252.0	-1129974.0	113948.0	-5698272.0
16	15	3	41	950	253.0	-952511.0	108921.0	-5698747.0
16	15	3	41	951	254.0	-554780.0	104067.0	-5699793.0
16	15	3	41	951	255.0	-140687.0	98534.0	-5699252.0
16	15	3	41	951	1.0	336503.0	87344.0	-5698452.0
16	15	3	41	952	2.0	383555.0	79644.0	-5699631.0
16	15	3	41	952	3.0	370314.0	73452.0	-5699277.0
16	15	3	41	952	4.0	344031.0	68814.0	-5698445.0
16	15	3	41	953	5.0	320101.0	63409.0	-5698243.0
16	15	3	41	953	6.0	283686.0	57646.0	-5699447.0
16	15	3	42	0	7.0	242305.0	51869.0	-5699334.0
16	15	3	42	1	8.0	185156.0	47037.0	-5698561.0
16	15	3	42	1	9.0	122623.0	43538.0	-5698144.0
16	15	3	42	2	10.0	71912.0	38601.0	-5699371.0
16	15	3	42	2	11.0	44045.0	33196.0	-5699631.0
16	15	3	42	2	12.0	43014.0	27004.0	-5698830.0
16	15	3	42	2	13.0	71123.0	20783.0	-5698476.0
16	15	3	42	3	14.0	102679.0	14809.0	-5699769.0
16	15	3	42	3	15.0	128411.0	8714.0	-5699914.0
16	15	3	42	3	16.0	141271.0	2156.0	-5699122.0
16	15	3	42	4	17.0	143972.0	-4316.0	-5698650.0
16	15	3	42	63	18.0	128769.0	-10898.0	-5699930.0
16	15	3	42	64	19.0	113567.0	-17701.0	-5700369.0
16	15	3	42	64	20.0	112855.0	-24124.0	-5699609.0
16	15	3	42	65	21.0	113276.0	-31224.0	-5698874.0
16	15	3	42	65	23.0	135280.0	-44856.0	-5700236.0
16	15	3	42	65	24.0	155328.0	-53152.0	-5699907.0
16	15	3	42	66	25.0	176421.0	-61599.0	-5699185.0
16	15	3	42	66	26.0	197048.0	-68376.0	-5699118.0
16	15	3	42	66	27.0	214303.0	-74141.0	-5700321.0
16	15	3	42	67	28.0	213929.0	-77957.0	-5699954.0
16	15	3	42	67	29.0	206778.0	-82506.0	-5699245.0
16	15	3	42	67	30.0	199657.0	-87647.0	-5699218.0
16	15	3	42	67	31.0	184608.0	-93374.0	-5700535.0
16	15	3	42	68	32.0	163538.0	-98808.0	-5700181.0
16	15	3	42	68	33.0	140987.0	-104232.0	-5699427.0
16	15	3	42	68	46.0	6395.0	-141308.0	-5699182.0
16	15	3	42	69	47.0	-9637.0	-144086.0	-5700458.0
16	15	3	42	69	48.0	-32809.0	-145279.0	-5700482.0
16	15	3	42	69	49.0	-60414.0	-145549.0	-5699673.0
16	15	3	42	69	50.0	-71666.0	-145416.0	-5699018.0
16	15	3	42	70	51.0	-79704.0	-145256.0	-5699764.0
16	15	3	42	128	52.0	-71385.0	-144866.0	-5700746.0
16	15	3	42	128	53.0	-55833.0	-143304.0	-5700039.0
16	15	3	42	128	54.0	-25731.0	-140359.0	-5699359.0
16	15	3	42	129	55.0	9892.0	-138631.0	-5699896.0
16	15	3	42	129	56.0	46763.0	-137795.0	-5700846.0
16	15	3	42	129	57.0	90113.0	-136723.0	-5700194.0
16	15	3	42	130	58.0	111074.0	-135563.0	-5699485.0
16	15	3	42	130	59.0	126543.0	-134089.0	-5699550.0
16	15	3	42	130	60.0	137481.0	-132066.0	-5700904.0
16	15	3	42	130	61.0	133468.0	-130581.0	-5700449.0
16	15	3	42	131	62.0	121544.0	-128872.0	-5699687.0
16	15	3	42	131	63.0	103503.0	-126831.0	-5699597.0
16	15	3	42	131	64.0	89221.0	-125091.0	-5700880.0
16	15	3	42	132	65.0	62644.0	-122832.0	-5700475.0
16	15	3	42	132	66.0	48152.0	-120307.0	-5699709.0
16	15	3	42	132	68.0	45326.0	-117069.0	-5700527.0
16	15	3	42	133	69.0	51488.0	-116385.0	-5700614.0
16	15	3	42	133	70.0	63365.0	-115554.0	-5699831.0
16	15	3	42	133	71.0	74186.0	-113732.0	-5699214.0
16	15	3	42	133	72.0	79814.0	-111691.0	-5699946.0
16	15	3	42	134	73.0	76695.0	-109634.0	-5700636.0
16	15	3	42	134	74.0	80054.0	-107627.0	-5699891.0
16	15	3	42	134	75.0	81068.0	-105482.0	-5699387.0
16	15	3	42	134	76.0	85746.0	-101768.0	-5700478.0
16	15	3	42	135	77.0	92499.0	-98581.0	-5701002.0
16	15	3	42	135	78.0	101032.0	-96982.0	-5700191.0
16	15	3	42	135	79.0	108267.0	-95129.0	-5699541.0
16	15	3	42	136	80.0	119736.0	-93106.0	-5700046.0
16	15	3	42	136	81.0	126543.0	-91616.0	-5701027.0
16	15	3	42	136	82.0	122633.0	-90458.0	-5700325.0
16	15	3	42	136	83.0	115221.0	-89587.0	-5699608.0
16	15	3	42	137	84.0	108782.0	-88617.0	-5699841.0
16	15	3	42	137	85.0	99936.0	-87681.0	-5700749.0
16	15	3	42	137	86.0	89443.0	-86458.0	-5700086.0
16	15	3	42	138	87.0	82451.0	-85335.0	-5699412.0
16	15	3	42	138	88.0	73889.0	-84699.0	-5699710.0
16	15	3	42	138	91.0	36064.0	-83690.0	-5699681.0
16	15	3	42	139	92.0	34919.0	-85248.0	-5699954.0
16	15	3	42	139	93.0	36491.0	-85519.0	-5701142.0
16	15	3	42	139	94.0	37161.0	-85380.0	-5700538.0
16	15	3	42	140	95.0	38741.0	-85172.0	-5699844.0
16	15	3	42	140	96.0	30449.0	-85217.0	-5699846.0
16	15	3	42	215	97.0	29244.0	-85367.0	-5701108.0
16	15	3	42	215	98.0	10818.0	-83830.0	-5700614.0
16	15	3	42	216	99.0	-21962.0	-80540.0	-5699856.0
16	15	3	42	216	100.0	-48656.0	-80063.0	-5699361.0
16	15	3	42	217	101.0	-75284.0	-80403.0	-5700641.0
16	15	3	42	217	102.0	-96326.0	-80186.0	-5700864.0
16	15	3	42	218	103.0	-111374.0	-79392.0	-5700092.0
16	15	3	42	219	104.0	-107189.0	-79238.0	-5699600.0
16	15	3	42	219	105.0	-98364.0	-79844.0	-5700701.0
16	15	3	42	220	106.0	-88511.0	-79652.0	-5700857.0
16	15	3	42	220	107.0	-63061.0	-79651.0	-5700101.0
16	15	3	42	221	108.0	-44427.0	-79406.0	-5699722.0
16	15	3	42	221	109.0	-34349.0	-79165.0	-5701093.0
16	15	3	42	222	110.0	-27476.0	-78869.0	-5701209.0
16	15	3	42	223	111.0	-25516.0	-79101.0	-5700436.0
16	15	3	42	223	113.0	-30669.0	-79529.0	-5701000.0
16	15	3	42	224	114.0	-24914.0	-80646.0	-5701323.0
16	15	3	42	224	115.0	-24131.0	-81976.0	-5700482.0
16	15	3	42	225	116.0	-25939.0	-81359.0	-5699802.0
16	15	3	42	225	117.0	-20501.0	-80869.0	-5700061.0
16	15	3	42	226	118.0	-7822.0	-80778.0	-5701015.0
16	15	3	42	226	119.0	1431.0	-80012.0	-5700336.0
16	15	3	42	229	120.0	8797.0	-78586.0	-5699631.0
16	15	3	42	230	121.0	17676.0	-75850.0	-5699632.0
16	15	3	42	230	122.0	24859.0	-74251.0	-5701030.0
16	15	3	42	231	123.0	42705.0	-73611.0	-5700554.0
16	15	3	42	231	124.0	73992.0	-72742.0	-5699893.0
16	15	3	42	232	125.0	113754.0	-71875.0	-5700432.0
16	15	3	42	232	126.0	150299.0	-70949.0	-5701452.0
16	15	3	42	233	127.0	198161.0	-70192.0	-5700711.0
16	15	3	42	233	128.0	255791.0	-69692.0	-5699999.0
16	15	3	42	297	129.0	319603.0	-68323.0	-5699751.0
16	15	3	42	297	130.0	396163.0	-67182.0	-5701007.0
16	15	3	42	298	131.0	474027.0	-66310.0	-5700617.0
16	15	3	42	298	132.0	531006.0	-65309.0	-5699837.0
16	15	3	42	298	133.0	556431.0	-64106.0	-5699450.0
16	15	3	42	298	135.0	438676.0	-62285.0	-5700560.0
16	15	3	42	299	136.0	306006.0	-62127.0	-5699782.0
16	15	3	42	299	137.0	145977.0	-62864.0	-5699286.0
16	15	3	42	299	138.0	-26724.0	-62159.0	-5700308.0
16	15	3	42	300	139.0	-234886.0	-60813.0	-5700406.0
16	15	3	42	300	140.0	-444166.0	-59464.0	-5699637.0
16	15	3	42	300	141.0	-674351.0	-58166.0	-5699227.0
16	15	3	42	300	142.0	-921566.0	-57421.0	-5700439.0
16	15	3	42	301	143.0	-1138653.0	-55547.0	-5700496.0
16	15	3	42	301	144.0	-1277546.0	-51926.0	-5699684.0
16	15	3	42	301	145.0	-1311686.0	-49881.0	-5699288.0
16	15	3	42	302	146.0	-1153741.0	-48469.0	-5700539.0
16	15	3	42	302	147.0	-804754.0	-46743.0	-5700696.0
16	15	3	42	302	148.0	-310390.0	-45987.0	-5699931.0
16	15	3	42	302	149.0	231251.0	-44908.0	-5699306.0
16	15	3	42	303	150.0	768868.0	-43591.0	-5699800.0
16	15	3	42	303	151.0	1223255.0	-42301.0	-5700761.0
16	15	3	42	303	152.0	1532060.0	-41091.0	-5700070.0
16	15	3	42	303	153.0	1611366.0	-40060.0	-5699384.0
16	15	3	42	304	154.0	1439813.0	-39131.0	-5699622.0
16	15	3	42	304	155.0	1061537.0	-37245.0	-5700739.0
16	15	3	42	304	156.0	598187.0	-35372.0	-5700072.0
16	15	3	42	305	158.0	-194258.0	-34107.0	-5699787.0
16	15	3	42	305	159.0	-477400.0	-34792.0	-5700624.0
16	15	3	42	305	160.0	-613236.0	-35189.0	-5699897.0
16	15	3	42	305	161.0	-597327.0	-34370.0	-5699201.0
16	15	3	42	306	162.0	-486638.0	-33842.0	-5699560.0
16	15	3	42	306	163.0	-334117.0	-32882.0	-5700534.0
16	15	3	42	367	164.0	-176904.0	-31995.0	-5699907.0
16	15	3	42	368	165.0	-42287.0	-30626.0	-5699192.0
16	15	3	42	368	166.0	53803.0	-27597.0	-5699542.0
16	15	3	42	368	167.0	95826.0	-25698.0	-5700711.0
16	15	3	42	368	168.0	97607.0	-24453.0	-5700156.0
16	15	3	42	369	169.0	72013.0	-23287.0	-5699394.0
16	15	3	42	369	170.0	40494.0	-21658.0	-5699126.0
16	15	3	42	369	171.0	-1761.0	-20529.0	-5700382.0
16	15	3	42	370	172.0	-35674.0	-19805.0	-5700174.0
16	15	3	42	370	173.0	-51961.0	-18439.0	-5699397.0
16	15	3	42	370	174.0	-55104.0	-17779.0	-5699222.0
16	15	3	42	370	175.0	-41276.0	-17016.0	-5700499.0
16	15	3	42	371	176.0	-32106.0	-15945.0	-5700232.0
16	15	3	42	371	177.0	-22607.0	-15068.0	-5699477.0
16	15	3	42	372	178.0	-20671.0	-14221.0	-5699041.0
16	15	3	42	372	203.0	-112011.0	4384.0	-5699940.0
16	15	3	42	372	204.0	-120349.0	3690.0	-5701064.0
16	15	3	42	372	205.0	-125394.0	3586.0	-5700437.0
16	15	3	42	373	206.0	-140810.0	4669.0	-5699717.0
16	15	3	42	373	207.0	-142862.0	5853.0	-5699757.0
16	15	3	42	373	208.0	-132280.0	6948.0	-5701016.0
16	15	3	42	439	209.0	-121477.0	7442.0	-5700571.0
16	15	3	42	440	210.0	-109264.0	8886.0	-5699824.0
16	15	3	42	440	211.0	-98567.0	12319.0	-5699371.0
16	15	3	42	440	212.0	-81948.0	14974.0	-5700524.0
16	15	3	42	441	213.0	-52182.0	16598.0	-5700603.0
16	15	3	42	441	214.0	-18307.0	17550.0	-5699839.0
16	15	3	42	441	215.0	17892.0	19511.0	-5699420.0
16	15	3	42	441	216.0	51441.0	22194.0	-5700592.0
16	15	3	42	442	217.0	93620.0	24608.0	-5700646.0
16	15	3	42	442	218.0	138364.0	27443.0	-5699843.0
16	15	3	42	442	219.0	175867.0	30206.0	-5699588.0
16	15	3	42	442	220.0	198794.0	33348.0	-5701002.0
16	15	3	42	443	221.0	194677.0	36789.0	-5701003.0
16	15	3	42	443	222.0	190379.0	41107.0	-5700197.0
16	15	3	42	443	223.0	188148.0	45516.0	-5699722.0
16	15	3	42	444	225.0	143969.0	54141.0	-5701395.0
16	15	3	42	444	226.0	135211.0	58261.0	-5700591.0
16	15	3	42	444	227.0	137481.0	61769.0	-5699880.0
16	15	3	42	444	228.0	134227.0	67199.0	-5699898.0
16	15	3	42	444	229.0	113451.0	73308.0	-5700990.0
16	15	3	42	445	230.0	80096.0	79771.0	-5700404.0
16	15	3	42	445	231.0	49506.0	86820.0	-5699716.0
16	15	3	42	445	232.0	32353.0	95678.0	-5699622.0
16	15	3	42	445	233.0	26396.0	105493.0	-5701015.0
16	15	3	42	446	234.0	22857.0	113014.0	-5700616.0
16	15	3	42	446	235.0	25454.0	121258.0	-5699917.0
16	15	3	42	446	236.0	28516.0	129495.0	-5700255.0
16	15	3	42	446	237.0	40881.0	137906.0	-5701261.0
16	15	3	42	446	238.0	57503.0	146205.0	-5700596.0
16	15	3	42	447	239.0	75241.0	155219.0	-5699872.0
16	15	3	42	447	240.0	92675.0	164224.0	-5699925.0
16	15	3	42	447	241.0	97846.0	172185.0	-5701261.0
16	15	3	42	447	242.0	95437.0	180089.0	-5700784.0
16	15	3	42	448	248.0	-85144.0	221669.0	-5699623.0
16	15	3	42	448	249.0	-107856.0	225693.0	-5700692.0
16	15	3	42	448	250.0	-122080.0	230266.0	-5701219.0
16	15	3	42	449	251.0	-136707.0	235144.0	-5700453.0
16	15	3	42	516	252.0	-148562.0	239249.0	-5699890.0
16	15	3	42	516	253.0	-155764.0	242669.0	-5700818.0
16	15	3	42	517	254.0	-160156.0	246041.0	-5701051.0
16	15	3	42	517	255.0	-151989.0	249921.0	-5700242.0
16	15	3	42	518	0.0	-139780.0	255284.0	-5699796.0
16	15	3	42	518	1.0	-119710.0	257750.0	-5700902.0
16	15	3	42	518	2.0	-95947.0	258984.0	-5701097.0
16	15	3	42	519	3.0	-72764.0	259600.0	-5700232.0
16	15	3	42	519	4.0	-48694.0	259794.0	-5699606.0
16	15	3	42	519	5.0	-33654.0	259479.0	-5700244.0
16	15	3	42	520	6.0	-24764.0	258814.0	-5701065.0
16	15	3	42	520	7.0	-19333.0	258132.0	-5700294.0
16	15	3	42	520	8.0	-17636.0	256881.0	-5699654.0
16	15	3	42	521	9.0	-25451.0	254669.0	-5700306.0
16	15	3	42	521	10.0	-38006.0	251943.0	-5701164.0
16	15	3	42	522	11.0	-58626.0	249492.0	-5700464.0
16	15	3	42	522	12.0	-99756.0	247408.0	-5699916.0
16	15	3	42	522	14.0	-168296.0	240592.0	-5701336.0
16	15	3	42	522	15.0	-195254.0	235723.0	-5700555.0
16	15	3	42	523	16.0	-224761.0	229548.0	-5699856.0
16	15	3	42	523	17.0	-247810.0	225091.0	-5700489.0
16	15	3	42	523	18.0	-284139.0	220843.0	-5701601.0
16	15	3	42	523	19.0	-343179.0	216441.0	-5700931.0
16	15	3	42	523	20.0	-432627.0	211797.0	-5700181.0
16	15	3	42	592	21.0	-603247.0	207198.0	-5699931.0
16	15	3	42	592	22.0	-908786.0	202738.0	-5701385.0
16	15	3	42	593	23.0	-1342551.0	199442.0	-5701236.0
16	15	3	42	593	24.0	-1576647.0	195133.0	-5700454.0
16	15	3	42	593	25.0	-1519722.0	190092.0	-5699922.0
16	15	3	42	594	26.0	-1165517.0	184984.0	-5700940.0
16	15	3	42	594	27.0	-575499.0	179378.0	-5701113.0
16	15	3	42	594	28.0	-50315.0	174336.0	-5700437.0
16	15	3	42	594	29.0	318047.0	169624.0	-5700217.0
16	15	3	42	595	30.0	587326.0	163893.0	-5701641.0
16	15	3	42	595	31.0	694914.0	158146.0	-5701485.0
16	15	3	42	595	32.0	586409.0	152558.0	-5700696.0
16	15	3	42	596	33.0	406699.0	147171.0	-5700275.0
16	15	3	42	596	34.0	199968.0	141342.0	-5701536.0
16	15	3	42	596	35.0	52341.0	135819.0	-5701591.0
16	15	3	42	596	37.0	-57143.0	124445.0	-5700160.0
16	15	3	42	597	38.0	-28794.0	117227.0	-5700809.0
16	15	3	42	597	39.0	44284.0	111039.0	-5701676.0
16	15	3	42	597	40.0	122338.0	105415.0	-5700953.0
16	15	3	42	597	41.0	168246.0	99398.0	-5700287.0
16	15	3	42	598	42.0	190376.0	93167.0	-5700409.0
16	15	3	42	598	43.0	166286.0	87168.0	-5701671.0
16	15	3	42	598	44.0	105956.0	82263.0	-5701138.0
16	15	3	42	599	45.0	24078.0	78301.0	-5700527.0
16	15	3	42	599	46.0	-38177.0	72446.0	-5701087.0
16	15	3	42	599	47.0	-58840.0	66486.0	-5701881.0
16	15	3	42	599	48.0	-47006.0	59564.0	-5701164.0
16	15	3	42	600	49.0	-3899.0	52941.0	-5700552.0
16	15	3	42	600	50.0	60970.0	46272.0	-5701083.0
16	15	3	42	600	51.0	143448.0	39332.0	-5701640.0
16	15	3	42	601	52.0	228654.0	32684.0	-5700909.0
16	15	3	42	601	53.0	310469.0	26297.0	-5700212.0
16	15	3	42	601	54.0	378706.0	19206.0	-5700377.0
16	15	3	42	602	55.0	424453.0	11631.0	-5701704.0
16	15	3	42	602	56.0	444782.0	4311.0	-5701191.0
16	15	3	42	602	57.0	436307.0	-2677.0	-5700473.0
16	15	3	42	603	59.0	341655.0	-18012.0	-5701985.0
16	15	3	42	603	60.0	276304.0	-26427.0	-5701441.0
16	15	3	42	603	61.0	203424.0	-35391.0	-5700711.0
16	15	3	42	603	62.0	142269.0	-42906.0	-5700611.0
16	15	3	42	604	63.0	88764.0	-50286.0	-5701887.0
16	15	3	42	604	64.0	54011.0	-57658.0	-5701496.0
16	15	3	42	604	65.0	33386.0	-64804.0	-5700757.0
16	15	3	42	668	66.0	27325.0	-71995.0	-5700630.0
16	15	3	42	668	67.0	30759.0	-77474.0	-5702062.0
16	15	3	42	669	68.0	44459.0	-81854.0	-5701841.0
16	15	3	42	669	69.0	72473.0	-87656.0	-5701082.0
16	15	3	42	669	70.0	118409.0	-94293.0	-5700612.0
16	15	3	42	670	71.0	194836.0	-100078.0	-5701699.0
16	15	3	42	670	72.0	293718.0	-105474.0	-5701843.0
16	15	3	42	670	73.0	406758.0	-110929.0	-5701049.0
16	15	3	42	670	74.0	510078.0	-116124.0	-5700552.0
16	15	3	42	671	75.0	587051.0	-120951.0	-5701543.0
16	15	3	42	671	76.0	623475.0	-125655.0	-5701976.0
16	15	3	42	671	77.0	620691.0	-130269.0	-5701174.0
16	15	3	42	672	78.0	581694.0	-134271.0	-5700646.0
16	15	3	42	672	79.0	517156.0	-138219.0	-5701776.0
16	15	3	42	672	80.0	432981.0	-141670.0	-5702169.0
16	15	3	42	673	82.0	255961.0	-148262.0	-5700699.0
16	15	3	42	673	83.0	180129.0	-152767.0	-5701110.0
16	15	3	42	673	84.0	113072.0	-155447.0	-5702016.0
16	15	3	42	673	85.0	58097.0	-157284.0	-5701309.0
16	15	3	42	674	86.0	21922.0	-158974.0	-5700647.0
16	15	3	42	674	87.0	15156.0	-160182.0	-5701093.0
16	15	3	42	674	88.0	22849.0	-161384.0	-5701972.0
16	15	3	42	674	89.0	40787.0	-161255.0	-5701277.0
16	15	3	42	675	90.0	62134.0	-159630.0	-5700642.0
16	15	3	42	675	91.0	90905.0	-159469.0	-5701452.0
16	15	3	42	675	92.0	120746.0	-159261.0	-5702201.0
16	15	3	42	676	93.0	151575.0	-158804.0	-5701438.0
16	15	3	42	676	94.0	170989.0	-158806.0	-5700747.0
16	15	3	42	676	95.0	180242.0	-157604.0	-5700944.0
16	15	3	42	676	96.0	175341.0	-156744.0	-5701941.0
16	15	3	42	677	97.0	169374.0	-155862.0	-5701330.0
16	15	3	42	677	98.0	161944.0	-153984.0	-5700567.0
16	15	3	42	677	99.0	159404.0	-152482.0	-5700689.0
16	15	3	42	678	100.0	161448.0	-151007.0	-5701886.0
16	15	3	42	678	101.0	161458.0	-149104.0	-5701397.0
16	15	3	42	678	102.0	158289.0	-147256.0	-5700615.0
16	15	3	42	679	104.0	173623.0	-143826.0	-5701663.0
16	15	3	42	679	105.0	185786.0	-143128.0	-5701412.0
16	15	3	42	679	106.0	197196.0	-142038.0	-5700629.0
16	15	3	42	680	107.0	208783.0	-139619.0	-5700787.0
16	15	3	42	680	108.0	218015.0	-137282.0	-5702132.0
16	15	3	42	680	109.0	222733.0	-134987.0	-5701710.0
16	15	3	42	735	110.0	224636.0	-132221.0	-5700908.0
16	15	3	42	735	111.0	217641.0	-129574.0	-5700661.0
16	15	3	42	736	112.0	214822.0	-125149.0	-5701859.0
16	15	3	42	736	113.0	209988.0	-121960.0	-5701687.0
16	15	3	42	736	114.0	208176.0	-119602.0	-5700876.0
16	15	3	42	737	115.0	201319.0	-117418.0	-5700306.0
16	15	3	42	811	116.0	195279.0	-115245.0	-5701286.0
16	15	3	42	811	117.0	180966.0	-112871.0	-5701771.0
16	15	3	42	811	118.0	159798.0	-110674.0	-5700977.0
16	15	3	42	812	119.0	141959.0	-108839.0	-5700438.0
16	15	3	42	812	120.0	121674.0	-106551.0	-5701366.0
16	15	3	42	812	121.0	102066.0	-104564.0	-5701841.0
16	15	3	42	812	122.0	89444.0	-102607.0	-5701046.0
16	15	3	42	813	123.0	80921.0	-100951.0	-5700460.0
16	15	3	42	813	124.0	66419.0	-99111.0	-5701313.0
16	15	3	42	813	127.0	-12559.0	-96467.0	-5700456.0
16	15	3	42	813	128.0	-45834.0	-96832.0	-5701264.0
16	15	3	42	814	129.0	-76995.0	-95661.0	-5702054.0
16	15	3	42	814	130.0	-104814.0	-92152.0	-5701248.0
16	15	3	42	814	131.0	-120867.0	-90068.0	-5700501.0
16	15	3	42	814	132.0	-127237.0	-88961.0	-5700531.0
16	15	3	42	815	149.0	-106922.0	-80532.0	-5701171.0
16	15	3	42	815	150.0	-116407.0	-81315.0	-5701626.0
16	15	3	42	815	151.0	-112369.0	-82388.0	-5700796.0
16	15	3	42	816	152.0	-114028.0	-82181.0	-5700138.0
16	15	3	42	816	153.0	-121766.0	-81833.0	-5700646.0
16	15	3	42	816	154.0	-134968.0	-81206.0	-5701637.0
16	15	3	42	816	155.0	-149961.0	-80726.0	-5700966.0
16	15	3	42	817	156.0	-162936.0	-80136.0	-5700481.0
16	15	3	42	817	157.0	-174636.0	-77371.0	-5701413.0
16	15	3	42	817	158.0	-173569.0	-75651.0	-5701690.0
16	15	3	42	817	159.0	-168946.0	-75235.0	-5700873.0
16	15	3	42	818	160.0	-154537.0	-74456.0	-5700271.0
16	15	3	42	818	161.0	-132212.0	-74214.0	-5701095.0
16	15	3	42	818	162.0	-103104.0	-73571.0	-5701902.0
16	15	3	42	819	163.0	-68737.0	-72655.0	-5701120.0
16	15	3	42	819	164.0	-35646.0	-72181.0	-5700401.0
16	15	3	42	819	165.0	-6338.0	-71074.0	-5700251.0
16	15	3	42	819	166.0	20787.0	-70138.0	-5701764.0
16	15	3	42	820	167.0	31718.0	-69397.0	-5701505.0
16	15	3	42	820	168.0	24999.0	-68849.0	-5700775.0
16	15	3	42	820	169.0	4753.0	-68171.0	-5700472.0
16	15	3	42	821	171.0	-54987.0	-66396.0	-5701615.0
16	15	3	42	821	172.0	-85594.0	-66244.0	-5700851.0
16	15	3	42	821	173.0	-117551.0	-67344.0	-5700483.0
16	15	3	42	821	174.0	-141691.0	-67075.0	-5701599.0
16	15	3	42	822	175.0	-163981.0	-66061.0	-5701463.0
16	15	3	42	822	176.0	-177521.0	-64942.0	-5700672.0
16	15	3	42	822	177.0	-190782.0	-63846.0	-5700320.0
16	15	3	42	891	178.0	-203745.0	-63066.0	-5701604.0
16	15	3	42	891	179.0	-218866.0	-61481.0	-5701540.0
16	15	3	42	891	180.0	-222158.0	-57801.0	-5700726.0
16	15	3	42	892	181.0	-216407.0	-55997.0	-5700229.0
16	15	3	42	892	182.0	-190737.0	-54781.0	-5701238.0
16	15	3	42	892	183.0	-153487.0	-54017.0	-5701564.0
16	15	3	42	893	184.0	-116637.0	-52459.0	-5700787.0
16	15	3	42	893	185.0	-74862.0	-50962.0	-5700193.0
16	15	3	42	893	186.0	-39244.0	-49981.0	-5700974.0
16	15	3	42	894	187.0	-1084.0	-48866.0	-5701540.0
16	15	3	42	894	188.0	48593.0	-47711.0	-5700774.0
16	15	3	42	894	189.0	111715.0	-46402.0	-5700322.0
16	15	3	42	894	190.0	192886.0	-44641.0	-5701402.0
16	15	3	42	895	191.0	292548.0	-43381.0	-5701579.0
16	15	3	42	895	192.0	394135.0	-41914.0	-5700772.0
16	15	3	42	895	194.0	502590.0	-39127.0	-5700934.0
16	15	3	42	895	195.0	463864.0	-39756.0	-5701654.0
16	15	3	42	896	196.0	348802.0	-39796.0	-5700836.0
16	15	3	42	896	197.0	174405.0	-38554.0	-5700112.0
16	15	3	42	896	198.0	-28127.0	-37548.0	-5700194.0
16	15	3	42	896	199.0	-244260.0	-36509.0	-5701343.0
16	15	3	42	896	200.0	-478640.0	-35219.0	-5700750.0
16	15	3	42	897	201.0	-730912.0	-34116.0	-5699977.0
16	15	3	42	897	202.0	-1009515.0	-30496.0	-5699639.0
16	15	3	42	897	203.0	-1256808.0	-28216.0	-5700960.0
16	15	3	42	897	204.0	-1420139.0	-26651.0	-5700732.0
16	15	3	42	898	205.0	-1443391.0	-25308.0	-5700000.0
16	15	3	42	898	206.0	-1282892.0	-24231.0	-5699947.0
16	15	3	42	898	207.0	-924827.0	-23071.0	-5701389.0
16	15	3	42	898	208.0	-405200.0	-21879.0	-5701054.0
16	15	3	42	899	209.0	234347.0	-20373.0	-5700352.0
16	15	3	42	899	210.0	944730.0	-18347.0	-5699834.0
16	15	3	42	899	211.0	1640485.0	-16767.0	-5700771.0
16	15	3	42	899	212.0	2187762.0	-15959.0	-5701041.0
16	15	3	42	900	213.0	2466427.0	-15179.0	-5700274.0
16	15	3	42	900	214.0	2403483.0	-14234.0	-5699581.0
16	15	3	42	900	216.0	1632906.0	-10944.0	-5700859.0
16	15	3	42	900	217.0	1150729.0	-11349.0	-5700107.0
16	15	3	42	901	218.0	721772.0	-12012.0	-5699602.0
16	15	3	42	901	219.0	374655.0	-11597.0	-5700846.0
16	15	3	42	902	220.0	95089.0	-10424.0	-5701077.0
16	15	3	42	902	221.0	-158407.0	-8949.0	-5700252.0
16	15	3	42	902	222.0	-398639.0	-8019.0	-5699564.0
16	15	3	42	965	223.0	-607779.0	-7130.0	-5700162.0
16	15	3	42	966	224.0	-767411.0	-5719.0	-5701266.0
16	15	3	42	966	225.0	-837022.0	-2557.0	-5700545.0
16	15	3	42	966	226.0	-801841.0	-727.0	-5699869.0
16	15	3	42	967	227.0	-681509.0	361.0	-5699727.0
16	15	3	42	967	228.0	-507506.0	1244.0	-5701109.0
16	15	3	42	967	229.0	-325127.0	2009.0	-5700691.0
16	15	3	42	968	230.0	-165961.0	3369.0	-5700001.0
16	15	3	42	968	231.0	-28077.0	4272.0	-5699454.0
16	15	3	42	968	232.0	89034.0	4701.0	-5700364.0
16	15	3	42	968	233.0	162448.0	5469.0	-5700206.0
16	15	3	42	969	234.0	172872.0	6372.0	-5699729.0
16	15	3	42	969	235.0	135723.0	7606.0	-5700681.0
16	15	3	42	969	236.0	78194.0	8227.0	-5700784.0
16	15	3	42	969	237.0	13358.0	8823.0	-5699945.0
16	15	3	42	970	239.0	-101625.0	9031.0	-5700776.0
16	15	3	42	970	240.0	-121914.0	8368.0	-5700738.0
16	15	3	42	971	241.0	-115130.0	7828.0	-5699934.0
16	15	3	42	971	242.0	-64446.0	8062.0	-5699317.0
16	15	3	42	971	243.0	-1465.0	8111.0	-5700112.0
16	15	3	42	971	244.0	39036.0	8766.0	-5700909.0
16	15	3	42	972	245.0	59640.0	9011.0	-5700167.0
16	15	3	42	972	246.0	56461.0	9510.0	-5699481.0
16	15	3	42	972	247.0	13058.0	11976.0	-5699999.0
16	15	3	42	973	248.0	-78911.0	13191.0	-5700912.0
16	15	3	42	973	249.0	-197096.0	13936.0	-5700254.0
16	15	3	42	973	250.0	-292297.0	14288.0	-5699681.0
16	15	3	42	973	251.0	-342180.0	15428.0	-5700772.0
16	15	3	43	47	252.0	-377323.0	16273.0	-5701072.0
16	15	3	43	47	253.0	-394008.0	16970.0	-5700302.0
16	15	3	43	47	254.0	-379782.0	17561.0	-5699585.0
16	15	3	43	48	255.0	-342300.0	18278.0	-5700117.0
16	15	3	43	48	0.0	-306262.0	18733.0	-5700999.0
16	15	3	43	48	1.0	-270443.0	18969.0	-5700363.0
16	15	3	43	48	2.0	-197746.0	18795.0	-5699563.0
16	15	3	43	49	3.0	-84265.0	19324.0	-5699691.0
16	15	3	43	49	5.0	115642.0	20868.0	-5700725.0
16	15	3	43	49	6.0	205373.0	20326.0	-5699942.0
16	15	3	43	49	7.0	240046.0	18878.0	-5699608.0
16	15	3	43	49	8.0	220623.0	18771.0	-5700779.0
16	15	3	43	50	9.0	47584.0	19594.0	-5700715.0
16	15	3	43	50	10.0	-69582.0	20427.0	-5699894.0
16	15	3	43	50	11.0	-21637.0	21043.0	-5699922.0
16	15	3	43	50	12.0	64557.0	21915.0	-5701265.0
16	15	3	43	51	13.0	198521.0	23450.0	-5700967.0
16	15	3	43	51	14.0	316451.0	26864.0	-5700178.0
16	15	3	43	51	15.0	365450.0	28467.0	-5700007.0
16	15	3	43	52	16.0	323259.0	29564.0	-5701457.0
16	15	3	43	52	17.0	232543.0	31154.0	-5701376.0
16	15	3	43	52	18.0	139226.0	32644.0	-5700519.0
16	15	3	43	52	19.0	68416.0	33879.0	-5699916.0
16	15	3	43	53	20.0	28931.0	35630.0	-5700691.0
16	15	3	43	53	21.0	10016.0	38201.0	-5701000.0
16	15	3	43	53	22.0	381.0	41243.0	-5700195.0
16	15	3	43	53	23.0	-4522.0	43708.0	-5699644.0
16	15	3	43	54	24.0	-24323.0	46752.0	-5700687.0
16	15	3	43	54	25.0	-73366.0	50712.0	-5700974.0
16	15	3	43	54	26.0	-159922.0	55187.0	-5700212.0
16	15	3	43	54	28.0	-429122.0	64324.0	-5700852.0
16	15	3	43	55	29.0	-557913.0	67561.0	-5701012.0
16	15	3	43	55	30.0	-655282.0	72141.0	-5700251.0
16	15	3	43	55	31.0	-722244.0	77959.0	-5699567.0
16	15	3	43	55	32.0	-759849.0	84173.0	-5700284.0
16	15	3	43	56	33.0	-795599.0	90754.0	-5700894.0
16	15	3	43	129	34.0	-837482.0	97731.0	-5700163.0
16	15	3	43	130	35.0	-849566.0	105831.0	-5699304.0
16	15	3	43	130	36.0	-852007.0	116424.0	-5699576.0
16	15	3	43	130	37.0	-867255.0	125276.0	-5700516.0
16	15	3	43	131	38.0	-888817.0	133153.0	-5699952.0
16	15	3	43	131	39.0	-904876.0	141233.0	-5699132.0
16	15	3	43	131	40.0	-848720.0	149631.0	-5699454.0
16	15	3	43	132	41.0	-731880.0	158700.0	-5700471.0
16	15	3	43	132	42.0	-605724.0	167650.0	-5699972.0
16	15	3	43	132	43.0	-509268.0	176663.0	-5699221.0
16	15	3	43	132	44.0	-413766.0	185835.0	-5699734.0
16	15	3	43	133	45.0	-328721.0	193761.0	-5700449.0
16	15	3	43	133	46.0	-227385.0	201909.0	-5699851.0
16	15	3	43	133	47.0	-132688.0	210502.0	-5699026.0
16	15	3	43	134	48.0	-51360.0	217792.0	-5699104.0
16	15	3	43	134	50.0	28283.0	231984.0	-5699796.0
16	15	3	43	134	51.0	37358.0	237771.0	-5698929.0
16	15	3	43	134	52.0	38378.0	242151.0	-5698663.0
16	15	3	43	135	53.0	41514.0	248246.0	-5699792.0
16	15	3	43	135	54.0	38625.0	253593.0	-5699574.0
16	15	3	43	135	55.0	24109.0	258456.0	-5698789.0
16	15	3	43	135	56.0	15981.0	263188.0	-5698328.0
16	15	3	43	136	57.0	7421.0	267108.0	-5699654.0
16	15	3	43	136	58.0	-1462.0	271434.0	-5699900.0
16	15	3	43	136	59.0	-9338.0	276577.0	-5699168.0
16	15	3	43	136	60.0	-29273.0	279173.0	-5698679.0
16	15	3	43	137	61.0	-63691.0	280844.0	-5699752.0
16	15	3	43	137	62.0	-95813.0	281738.0	-5699867.0
16	15	3	43	137	63.0	-122165.0	282151.0	-5699059.0
16	15	3	43	138	64.0	-158939.0	281998.0	-5698622.0
16	15	3	43	138	65.0	-195165.0	281484.0	-5700125.0
16	15	3	43	138	66.0	-232677.0	280519.0	-5700258.0
16	15	3	43	138	67.0	-281739.0	279092.0	-5699508.0
16	15	3	43	139	68.0	-323599.0	276998.0	-5698754.0
16	15	3	43	139	69.0	-329514.0	274731.0	-5699129.0
16	15	3	43	209	70.0	-298892.0	271974.0	-5699974.0
16	15	3	43	209	71.0	-225128.0	269071.0	-5699404.0
16	15	3	43	209	73.0	4069.0	261448.0	-5699059.0
16	15	3	43	210	74.0	109723.0	255839.0	-5699957.0
16	15	3	43	210	75.0	215314.0	250819.0	-5699415.0
16	15	3	43	210	76.0	307360.0	245924.0	-5698656.0
16	15	3	43	211	77.0	388264.0	241247.0	-5698868.0
16	15	3	43	211	78.0	415568.0	238176.0	-5699893.0
16	15	3	43	211	79.0	428665.0	234665.0	-5699446.0
16	15	3	43	211	80.0	361028.0	229182.0	-5698655.0
16	15	3	43	212	81.0	102425.0	224020.0	-5699206.0
16	15	3	43	212	82.0	-420782.0	218432.0	-5700269.0
16	15	3	43	212	83.0	-745046.0	212485.0	-5699695.0
16	15	3	43	212	84.0	-543200.0	206966.0	-5698877.0
16	15	3	43	213	85.0	26739.0	200497.0	-5698627.0
16	15	3	43	213	95.0	-167541.0	139923.0	-5700481.0
16	15	3	43	213	96.0	-378916.0	132559.0	-5699692.0
16	15	3	43	213	97.0	-373649.0	123839.0	-5699132.0
16	15	3	43	214	98.0	-257179.0	116821.0	-5700262.0
16	15	3	43	214	99.0	-100244.0	110303.0	-5700549.0
16	15	3	43	214	100.0	30162.0	103588.0	-5699881.0
16	15	3	43	214	101.0	125689.0	96583.0	-5699177.0
16	15	3	43	215	102.0	194059.0	89762.0	-5699854.0
16	15	3	43	215	103.0	255615.0	84486.0	-5700578.0
16	15	3	43	215	104.0	300201.0	80103.0	-5699934.0
16	15	3	43	215	105.0	342529.0	73306.0	-5699192.0
16	15	3	43	216	106.0	364889.0	66926.0	-5699821.0
16	15	3	43	216	107.0	361819.0	59887.0	-5700779.0
16	15	3	43	216	108.0	329173.0	53223.0	-5700181.0
16	15	3	43	216	109.0	291852.0	46449.0	-5699507.0
16	15	3	43	217	110.0	277669.0	39200.0	-5700460.0
16	15	3	43	217	111.0	286554.0	31758.0	-5701206.0
16	15	3	43	217	112.0	313037.0	24806.0	-5700584.0
16	15	3	43	218	113.0	356183.0	17181.0	-5699798.0
16	15	3	43	218	114.0	412112.0	10199.0	-5700066.0
16	15	3	43	218	115.0	468390.0	3476.0	-5701189.0
16	15	3	43	218	116.0	528424.0	-4276.0	-5700750.0
16	15	3	43	219	118.0	666111.0	-20401.0	-5699726.0
16	15	3	43	219	119.0	707176.0	-29829.0	-5700883.0
16	15	3	43	219	120.0	715500.0	-38416.0	-5700702.0
16	15	3	43	219	121.0	702867.0	-46180.0	-5699879.0
16	15	3	43	220	122.0	700641.0	-53828.0	-5699608.0
16	15	3	43	220	123.0	695451.0	-61212.0	-5700800.0
16	15	3	43	287	124.0	670423.0	-68661.0	-5700646.0
16	15	3	43	287	125.0	618546.0	-75265.0	-5699881.0
16	15	3	43	288	126.0	562941.0	-79859.0	-5699642.0
16	15	3	43	288	127.0	519156.0	-86262.0	-5700862.0
16	15	3	43	288	128.0	486244.0	-93192.0	-5700671.0
16	15	3	43	288	129.0	442588.0	-99631.0	-5699905.0
16	15	3	43	289	130.0	385232.0	-105506.0	-5699805.0
16	15	3	43	289	131.0	315171.0	-111036.0	-5700994.0
16	15	3	43	289	132.0	238459.0	-117650.0	-5700584.0
16	15	3	43	289	133.0	186826.0	-123071.0	-5699844.0
16	15	3	43	290	134.0	162066.0	-128211.0	-5699473.0
16	15	3	43	290	135.0	172230.0	-133199.0	-5700937.0
16	15	3	43	290	136.0	196233.0	-137667.0	-5700882.0
16	15	3	43	291	137.0	221493.0	-141985.0	-5700154.0
16	15	3	43	291	138.0	240286.0	-145398.0	-5699716.0
16	15	3	43	291	140.0	248584.0	-153485.0	-5701249.0
16	15	3	43	292	141.0	223971.0	-157697.0	-5700532.0
16	15	3	43	292	142.0	171497.0	-161817.0	-5699985.0
16	15	3	43	292	143.0	88479.0	-164119.0	-5701258.0
16	15	3	43	293	144.0	-21669.0	-166488.0	-5701389.0
16	15	3	43	293	145.0	-144653.0	-167529.0	-5700675.0
16	15	3	43	293	146.0	-284942.0	-168737.0	-5699874.0
16	15	3	43	293	147.0	-414941.0	-169590.0	-5700474.0
16	15	3	43	294	148.0	-530534.0	-168989.0	-5701350.0
16	15	3	43	294	149.0	-617743.0	-167519.0	-5700777.0
16	15	3	43	294	150.0	-677327.0	-168110.0	-5699984.0
16	15	3	43	294	151.0	-719131.0	-167707.0	-5700574.0
16	15	3	43	295	152.0	-737639.0	-166817.0	-5701395.0
16	15	3	43	295	153.0	-722507.0	-166278.0	-5700812.0
16	15	3	43	295	154.0	-689112.0	-165174.0	-5700056.0
16	15	3	43	371	155.0	-638981.0	-163852.0	-5700634.0
16	15	3	43	371	156.0	-580236.0	-162299.0	-5701434.0
16	15	3	43	371	157.0	-506318.0	-160784.0	-5700827.0
16	15	3	43	372	158.0	-433951.0	-159099.0	-5700038.0
16	15	3	43	372	159.0	-353807.0	-156889.0	-5700188.0
16	15	3	43	372	160.0	-269601.0	-155654.0	-5701154.0
16	15	3	43	373	161.0	-192891.0	-153671.0	-5700688.0
16	15	3	43	373	163.0	-106762.0	-150446.0	-5700075.0
16	15	3	43	373	164.0	-109845.0	-149814.0	-5701287.0
16	15	3	43	373	165.0	-140028.0	-147974.0	-5700802.0
16	15	3	43	374	166.0	-188369.0	-145635.0	-5700021.0
16	15	3	43	374	167.0	-250344.0	-143617.0	-5699584.0
16	15	3	43	374	168.0	-308161.0	-141699.0	-5700791.0
16	15	3	43	375	169.0	-353578.0	-139592.0	-5700816.0
16	15	3	43	375	170.0	-396384.0	-136106.0	-5700055.0
16	15	3	43	375	171.0	-430164.0	-131496.0	-5699898.0
16	15	3	43	375	172.0	-447336.0	-129144.0	-5701211.0
16	15	3	43	376	173.0	-456361.0	-126610.0	-5700926.0
16	15	3	43	376	174.0	-456243.0	-124824.0	-5700151.0
16	15	3	43	376	175.0	-440902.0	-122209.0	-5699880.0
16	15	3	43	377	176.0	-423308.0	-120456.0	-5701226.0
16	15	3	43	377	177.0	-396362.0	-118252.0	-5701045.0
16	15	3	43	377	178.0	-358281.0	-115784.0	-5700304.0
16	15	3	43	377	179.0	-321677.0	-113819.0	-5699626.0
16	15	3	43	378	180.0	-291679.0	-112676.0	-5700567.0
16	15	3	43	378	181.0	-241979.0	-110991.0	-5700851.0
16	15	3	43	378	182.0	-195717.0	-109433.0	-5700167.0
16	15	3	43	378	183.0	-157556.0	-108256.0	-5699453.0
16	15	3	43	379	185.0	-101334.0	-105797.0	-5700798.0
16	15	3	43	379	186.0	-89056.0	-106238.0	-5700155.0
16	15	3	43	379	187.0	-88119.0	-106966.0	-5699407.0
16	15	3	43	380	188.0	-85804.0	-106142.0	-5700212.0
16	15	3	43	380	189.0	-91237.0	-105117.0	-5701031.0
16	15	3	43	380	190.0	-78092.0	-104669.0	-5700439.0
16	15	3	43	456	191.0	-59496.0	-104182.0	-5699649.0
16	15	3	43	457	192.0	-45235.0	-103092.0	-5700217.0
16	15	3	43	543	193.0	-30940.0	-100586.0	-5701027.0
16	15	3	43	544	194.0	-10591.0	-99091.0	-5700448.0
16	15	3	43	544	195.0	8665.0	-98212.0	-5699652.0
16	15	3	43	544	196.0	29318.0	-97986.0	-5699613.0
16	15	3	43	544	197.0	56306.0	-97479.0	-5700834.0
16	15	3	43	545	198.0	74989.0	-97137.0	-5700483.0
16	15	3	43	545	199.0	86983.0	-96790.0	-5699686.0
16	15	3	43	545	200.0	96924.0	-96158.0	-5699520.0
16	15	3	43	546	201.0	96493.0	-96345.0	-5700872.0
16	15	3	43	546	202.0	86916.0	-96386.0	-5700632.0
16	15	3	43	546	203.0	80980.0	-95779.0	-5699880.0
16	15	3	43	547	204.0	87091.0	-95123.0	-5700024.0
16	15	3	43	547	205.0	104954.0	-95377.0	-5701117.0
16	15	3	43	547	208.0	266052.0	-95297.0	-5699521.0
16	15	3	43	547	209.0	345056.0	-96074.0	-5700742.0
16	15	3	43	548	252.0	-585389.0	-58439.0	-5699769.0
16	15	3	43	548	253.0	-665397.0	-57746.0	-5699431.0
16	15	3	43	548	254.0	-748169.0	-58382.0	-5700812.0
16	15	3	43	549	255.0	-797457.0	-57634.0	-5700567.0
16	15	3	43	549	0.0	-798016.0	-55903.0	-5699847.0
16	15	3	43	549	1.0	-759686.0	-54268.0	-5699094.0
16	15	3	43	550	2.0	-708934.0	-53039.0	-5699999.0
16	15	3	43	550	3.0	-683596.0	-51666.0	-5700639.0
16	15	3	43	550	4.0	-648348.0	-49603.0	-5699997.0
16	15	3	43	550	5.0	-579394.0	-45007.0	-5699213.0
16	15	3	43	551	6.0	-495761.0	-43514.0	-5700009.0
16	15	3	43	551	7.0	-440168.0	-42004.0	-5700847.0
16	15	3	43	551	8.0	-408916.0	-39662.0	-5700235.0
16	15	3	43	552	9.0	-377459.0	-37295.0	-5699451.0
16	15	3	43	552	10.0	-352859.0	-35609.0	-5699759.0
16	15	3	43	552	11.0	-346221.0	-34382.0	-5700776.0
16	15	3	43	553	12.0	-353058.0	-32749.0	-5700249.0
16	15	3	43	553	13.0	-372643.0	-30560.0	-5699476.0
16	15	3	43	553	14.0	-391786.0	-29117.0	-5700091.0
16	15	3	43	553	15.0	-382932.0	-27966.0	-5700984.0
16	15	3	43	554	16.0	-341476.0	-26970.0	-5700389.0
16	15	3	43	554	17.0	-284494.0	-24936.0	-5699637.0
16	15	3	43	554	19.0	-194814.0	-22561.0	-5701152.0
16	15	3	43	554	20.0	-191040.0	-22785.0	-5700510.0
16	15	3	43	555	21.0	-207796.0	-22386.0	-5699757.0
16	15	3	43	555	22.0	-244391.0	-20317.0	-5699469.0
16	15	3	43	555	23.0	-295336.0	-19052.0	-5700758.0
16	15	3	43	629	24.0	-335104.0	-17742.0	-5700562.0
16	15	3	43	630	25.0	-369522.0	-15796.0	-5699829.0
16	15	3	43	630	26.0	-398301.0	-13784.0	-5699379.0
16	15	3	43	630	27.0	-424732.0	-9909.0	-5700449.0
16	15	3	43	630	28.0	-449346.0	-7529.0	-5700262.0
16	15	3	43	631	29.0	-451457.0	-5541.0	-5699521.0
16	15	3	43	631	30.0	-420615.0	-3746.0	-5699259.0
16	15	3	43	631	31.0	-373839.0	-2947.0	-5700404.0
16	15	3	43	716	32.0	-336956.0	-1500.0	-5700059.0
16	15	3	43	716	33.0	-293769.0	-182.0	-5699316.0
16	15	3	43	717	34.0	-252749.0	1636.0	-5699151.0
16	15	3	43	717	35.0	-218787.0	2550.0	-5700066.0
16	15	3	43	717	36.0	-157851.0	3001.0	-5699553.0
16	15	3	43	718	37.0	-57267.0	4653.0	-5698903.0
16	15	3	43	718	41.0	245757.0	9316.0	-5699256.0
16	15	3	43	718	42.0	356123.0	9496.0	-5699481.0
16	15	3	43	718	43.0	504132.0	8593.0	-5700588.0
16	15	3	43	719	44.0	653162.0	9236.0	-5699998.0
16	15	3	43	719	45.0	748639.0	11698.0	-5699366.0
16	15	3	43	719	46.0	771050.0	13784.0	-5700056.0
16	15	3	43	719	47.0	717875.0	15128.0	-5700969.0
16	15	3	43	720	48.0	605636.0	16339.0	-5700206.0
16	15	3	43	720	64.0	2303169.0	25123.0	-5700550.0
16	15	3	43	720	86.0	288099.0	32074.0	-5700219.0
16	15	3	43	721	109.0	-664411.0	32227.0	-5700836.0
16	15	3	43	721	110.0	-493741.0	29992.0	-5700141.0
16	15	3	43	721	111.0	-332787.0	28929.0	-5700007.0
16	15	3	43	721	112.0	-192381.0	28807.0	-5701266.0
16	15	3	43	722	113.0	-82808.0	28906.0	-5700879.0
16	15	3	43	722	114.0	-71197.0	29072.0	-5700127.0
16	15	3	43	803	115.0	-32344.0	28921.0	-5699932.0
16	15	3	43	804	116.0	114556.0	29808.0	-5701163.0
16	15	3	43	804	117.0	234372.0	32417.0	-5700857.0
16	15	3	43	804	118.0	352256.0	33577.0	-5700090.0
16	15	3	43	805	119.0	449980.0	34436.0	-5699787.0
16	15	3	43	805	120.0	482101.0	34984.0	-5701073.0
16	15	3	43	805	121.0	453461.0	36114.0	-5701064.0
16	15	3	43	805	122.0	378471.0	36864.0	-5700276.0
16	15	3	43	806	123.0	295758.0	37585.0	-5700041.0
16	15	3	43	806	124.0	217271.0	37704.0	-5701381.0
16	15	3	43	806	125.0	167834.0	38740.0	-5701209.0
16	15	3	43	806	126.0	148829.0	41086.0	-5700406.0
16	15	3	43	807	127.0	148918.0	42449.0	-5700123.0
16	15	3	43	807	128.0	164364.0	43928.0	-5701509.0
16	15	3	43	807	129.0	179396.0	45949.0	-5701537.0
16	15	3	43	808	154.0	431426.0	200945.0	-5700547.0
16	15	3	43	808	155.0	412468.0	206191.0	-5699792.0
16	15	3	43	808	156.0	378267.0	212619.0	-5699757.0
16	15	3	43	808	157.0	356191.0	219545.0	-5700777.0
16	15	3	43	809	158.0	360191.0	226177.0	-5700269.0
16	15	3	43	809	159.0	382739.0	232681.0	-5699541.0
16	15	3	43	895	160.0	425614.0	238155.0	-5699270.0
16	15	3	43	896	161.0	478761.0	244211.0	-5700497.0
16	15	3	43	896	162.0	526899.0	251618.0	-5700292.0
16	15	3	43	896	163.0	569216.0	256689.0	-5699481.0
16	15	3	43	897	164.0	604261.0	260329.0	-5699111.0
16	15	3	43	897	165.0	630273.0	263528.0	-5700371.0
16	15	3	43	897	166.0	654247.0	265926.0	-5700474.0
16	15	3	43	897	167.0	672808.0	268143.0	-5699671.0
16	15	3	43	897	168.0	688214.0	269895.0	-5699212.0
16	15	3	43	898	169.0	720179.0	271109.0	-5700243.0
16	15	3	43	898	170.0	763341.0	271124.0	-5700401.0
16	15	3	43	898	171.0	823596.0	270455.0	-5699592.0
16	15	3	43	898	172.0	881769.0	269932.0	-5699177.0
16	15	3	43	898	173.0	920248.0	268899.0	-5700396.0
16	15	3	43	899	174.0	916574.0	266596.0	-5700513.0
16	15	3	43	899	176.0	744708.0	261833.0	-5699194.0
16	15	3	43	899	177.0	577388.0	257159.0	-5700092.0
16	15	3	43	899	178.0	356764.0	251251.0	-5700353.0
16	15	3	43	900	179.0	94484.0	247269.0	-5699471.0
16	15	3	43	900	180.0	-187355.0	244474.0	-5698754.0
16	15	3	43	900	181.0	-435764.0	241358.0	-5699146.0
16	15	3	43	900	182.0	-609688.0	236696.0	-5699970.0
16	15	3	43	901	183.0	-682556.0	230798.0	-5699264.0
16	15	3	43	901	199.0	327153.0	131008.0	-5700322.0
16	15	3	43	901	200.0	-107615.0	123082.0	-5699516.0
16	15	3	43	902	201.0	-415304.0	115700.0	-5698929.0
16	15	3	43	902	202.0	-619816.0	109317.0	-5699911.0
16	15	3	43	902	203.0	-791907.0	103081.0	-5700367.0
16	15	3	43	902	204.0	-912287.0	97072.0	-5699611.0
16	15	3	43	993	205.0	-1009521.0	90983.0	-5699179.0
16	15	3	43	993	206.0	-1097359.0	85933.0	-5700354.0
16	15	3	43	993	207.0	-1098219.0	82624.0	-5700404.0
16	15	3	43	993	208.0	-1018006.0	77186.0	-5699672.0
16	15	3	43	994	209.0	-927265.0	72064.0	-5699086.0
16	15	3	43	994	210.0	-818565.0	66303.0	-5699873.0
16	15	3	43	994	211.0	-690947.0	60818.0	-5700404.0
16	15	3	43	994	212.0	-522148.0	55563.0	-5699652.0
16	15	3	43	995	213.0	-298909.0	49944.0	-5699007.0
16	15	3	43	995	214.0	-39041.0	44402.0	-5699357.0
16	15	3	43	995	215.0	225219.0	38795.0	-5700448.0
16	15	3	43	995	216.0	432531.0	33036.0	-5699794.0
16	15	3	43	996	217.0	557686.0	27085.0	-5699142.0
16	15	3	43	996	218.0	589749.0	20987.0	-5699417.0
16	15	3	43	996	219.0	508700.0	15835.0	-5700604.0
16	15	3	43	996	221.0	183723.0	3841.0	-5699289.0
16	15	3	43	997	222.0	46975.0	-4402.0	-5699514.0
16	15	3	43	997	223.0	-51232.0	-12794.0	-5700698.0
16	15	3	43	997	224.0	-109643.0	-19012.0	-5700101.0
16	15	3	43	997	225.0	-140172.0	-25262.0	-5699419.0
16	15	3	43	997	226.0	-151071.0	-31689.0	-5699803.0
16	15	3	43	998	227.0	-160086.0	-37455.0	-5700882.0
16	15	3	43	998	228.0	-175124.0	-43360.0	-5700226.0
16	15	3	43	998	229.0	-199557.0	-48057.0	-5699494.0
16	15	3	43	998	230.0	-200891.0	-52968.0	-5699157.0
16	15	3	43	999	231.0	-164624.0	-59072.0	-5700547.0
16	15	3	43	999	232.0	-82808.0	-65367.0	-5700484.0
16	15	3	43	999	233.0	7151.0	-71404.0	-5699761.0
16	15	3	43	999	234.0	99879.0	-76865.0	-5699455.0
16	15	3	43	999	235.0	176114.0	-82544.0	-5701009.0
16	15	3	44	0	236.0	246171.0	-88002.0	-5701004.0
16	15	3	44	0	237.0	295061.0	-93122.0	-5700264.0
16	15	3	44	0	238.0	321973.0	-98377.0	-5699756.0
16	15	3	44	0	239.0	331784.0	-102663.0	-5700901.0
16	15	3	44	1	240.0	329221.0	-107226.0	-5701047.0
16	15	3	44	1	241.0	308297.0	-111541.0	-5700288.0
16	15	3	44	1	244.0	238841.0	-124294.0	-5700296.0
16	15	3	44	1	245.0	246682.0	-129566.0	-5699788.0
16	15	3	44	2	246.0	266425.0	-133385.0	-5699717.0
16	15	3	44	2	247.0	260266.0	-135798.0	-5700896.0
16	15	3	44	2	248.0	215088.0	-138441.0	-5700497.0
16	15	3	44	2	249.0	131736.0	-140765.0	-5699723.0
16	15	3	44	3	250.0	39914.0	-142799.0	-5699386.0
16	15	3	44	86	251.0	-33177.0	-143236.0	-5700670.0
16	15	3	44	86	252.0	-90490.0	-142584.0	-5700607.0
16	15	3	44	87	253.0	-162933.0	-143217.0	-5699804.0
16	15	3	44	87	254.0	-264537.0	-144192.0	-5699647.0
16	15	3	44	87	255.0	-391881.0	-144434.0	-5700862.0
16	15	3	44	87	0.0	-497807.0	-144121.0	-5700585.0
16	15	3	44	88	1.0	-562389.0	-144374.0	-5699794.0
16	15	3	44	88	2.0	-550667.0	-144153.0	-5699541.0
16	15	3	44	88	3.0	-459129.0	-144131.0	-5700651.0
16	15	3	44	88	4.0	-313384.0	-143577.0	-5700512.0
16	15	3	44	89	5.0	-155970.0	-142421.0	-5699700.0
16	15	3	44	89	6.0	-24189.0	-141381.0	-5699142.0
16	15	3	44	89	7.0	68463.0	-140278.0	-5700017.0
16	15	3	44	89	8.0	120954.0	-139146.0	-5700589.0
16	15	3	44	89	10.0	147417.0	-136340.0	-5699381.0
16	15	3	44	90	18.0	183831.0	-121585.0	-5699380.0
16	15	3	44	90	19.0	217794.0	-121497.0	-5700187.0
16	15	3	44	90	20.0	254209.0	-120517.0	-5700887.0
16	15	3	44	90	21.0	289991.0	-118489.0	-5700202.0
16	15	3	44	91	22.0	306969.0	-116372.0	-5699442.0
16	15	3	44	91	23.0	301095.0	-114099.0	-5699508.0
16	15	3	44	91	24.0	273103.0	-111624.0	-5700755.0
16	15	3	44	91	25.0	227498.0	-107806.0	-5700335.0
16	15	3	44	91	26.0	168724.0	-105027.0	-5699555.0
16	15	3	44	92	27.0	110551.0	-103171.0	-5699748.0
16	15	3	44	92	28.0	59887.0	-101457.0	-5700921.0
16	15	3	44	92	29.0	42653.0	-99605.0	-5700432.0
16	15	3	44	92	30.0	53630.0	-98079.0	-5699656.0
16	15	3	44	93	31.0	79856.0	-96226.0	-5699709.0
16	15	3	44	93	32.0	119827.0	-94946.0	-5700752.0
16	15	3	44	93	33.0	173912.0	-94627.0	-5700306.0
16	15	3	44	93	34.0	223246.0	-95427.0	-5699487.0
16	15	3	44	94	35.0	268348.0	-94516.0	-5699033.0
16	15	3	44	94	36.0	307946.0	-92989.0	-5700201.0
16	15	3	44	94	37.0	331675.0	-92130.0	-5700432.0
16	15	3	44	94	38.0	338476.0	-90271.0	-5699645.0
16	15	3	44	94	39.0	330761.0	-86996.0	-5699217.0
16	15	3	44	95	40.0	294431.0	-86469.0	-5700325.0
16	15	3	44	95	41.0	233154.0	-87355.0	-5700536.0
16	15	3	44	95	42.0	153574.0	-87236.0	-5699724.0
16	15	3	44	95	43.0	57564.0	-84392.0	-5699176.0
16	15	3	44	96	44.0	-42104.0	-82964.0	-5700162.0
16	15	3	44	96	45.0	-123960.0	-82357.0	-5700639.0
16	15	3	44	96	46.0	-184074.0	-82134.0	-5699829.0
16	15	3	44	96	47.0	-223191.0	-82249.0	-5699222.0
16	15	3	44	97	48.0	-242896.0	-82839.0	-5699920.0
16	15	3	44	97	49.0	-243679.0	-84529.0	-5700566.0
16	15	3	44	180	50.0	-231617.0	-85036.0	-5699808.0
16	15	3	44	180	51.0	-210052.0	-84338.0	-5699116.0
16	15	3	44	180	52.0	-185425.0	-81818.0	-5699663.0
16	15	3	44	181	53.0	-156636.0	-80729.0	-5700633.0
16	15	3	44	181	54.0	-133349.0	-80477.0	-5699999.0
16	15	3	44	181	55.0	-107022.0	-80441.0	-5699277.0
16	15	3	44	181	56.0	-86589.0	-82152.0	-5699244.0
16	15	3	44	181	57.0	-75151.0	-83595.0	-5700621.0
16	15	3	44	182	58.0	-73391.0	-82544.0	-5700261.0
16	15	3	44	182	59.0	-82015.0	-80947.0	-5699539.0
16	15	3	44	182	60.0	-106778.0	-80951.0	-5699900.0
16	15	3	44	182	61.0	-141815.0	-80651.0	-5701137.0
16	15	3	44	183	62.0	-178661.0	-80984.0	-5700583.0
16	15	3	44	183	63.0	-213445.0	-81802.0	-5699777.0
16	15	3	44	183	64.0	-239717.0	-83911.0	-5699489.0
16	15	3	44	183	65.0	-257894.0	-83774.0	-5700705.0
16	15	3	44	184	66.0	-260947.0	-81604.0	-5700526.0
16	15	3	44	184	67.0	-253124.0	-80592.0	-5699689.0
16	15	3	44	184	68.0	-236712.0	-80339.0	-5699302.0
16	15	3	44	184	69.0	-226301.0	-79817.0	-5700474.0
16	15	3	44	185	70.0	-216892.0	-80192.0	-5700553.0
16	15	3	44	185	71.0	-202902.0	-80903.0	-5699716.0
16	15	3	44	185	72.0	-184552.0	-82366.0	-5699142.0
16	15	3	44	185	73.0	-168252.0	-81760.0	-5700117.0
16	15	3	44	185	74.0	-162077.0	-78870.0	-5700602.0
16	15	3	44	186	75.0	-166194.0	-77687.0	-5699830.0
16	15	3	44	186	76.0	-176919.0	-76934.0	-5699316.0
16	15	3	44	186	77.0	-184514.0	-76259.0	-5700347.0
16	15	3	44	186	78.0	-196706.0	-76530.0	-5700699.0
16	15	3	44	187	79.0	-203206.0	-78241.0	-5699910.0
16	15	3	44	187	80.0	-205537.0	-77660.0	-5699322.0
16	15	3	44	187	81.0	-192441.0	-74889.0	-5700056.0
16	15	3	44	187	82.0	-171959.0	-73181.0	-5700749.0
16	15	3	44	188	83.0	-146814.0	-71969.0	-5699946.0
16	15	3	44	188	84.0	-121748.0	-70861.0	-5699238.0
16	15	3	44	188	85.0	-93446.0	-70857.0	-5699569.0
16	15	3	44	188	86.0	-73071.0	-71942.0	-5700773.0
16	15	3	44	189	87.0	-52341.0	-72104.0	-5700223.0
16	15	3	44	189	88.0	-42196.0	-70932.0	-5699508.0
16	15	3	44	189	89.0	-34656.0	-67642.0	-5699974.0
16	15	3	44	189	90.0	-30590.0	-65794.0	-5701092.0
16	15	3	44	189	91.0	-26174.0	-65027.0	-5700472.0
16	15	3	44	190	92.0	-17034.0	-64182.0	-5699722.0
16	15	3	44	190	93.0	-11024.0	-64216.0	-5700006.0
16	15	3	44	190	94.0	-846.0	-65556.0	-5701094.0
16	15	3	44	190	95.0	11662.0	-63922.0	-5700526.0
16	15	3	44	191	96.0	21309.0	-60054.0	-5699791.0
16	15	3	44	191	97.0	26168.0	-58341.0	-5700020.0
16	15	3	44	191	98.0	32900.0	-57179.0	-5701272.0
16	15	3	44	192	99.0	33786.0	-55799.0	-5700784.0
16	15	3	44	192	100.0	21394.0	-54888.0	-5699985.0
16	15	3	44	192	101.0	7636.0	-55412.0	-5699722.0
16	15	3	44	285	102.0	-2961.0	-55908.0	-5700768.0
16	15	3	44	285	103.0	-8190.0	-54326.0	-5700596.0
16	15	3	44	285	104.0	-9783.0	-50073.0	-5699791.0
16	15	3	44	286	105.0	-14611.0	-47919.0	-5699504.0
16	15	3	44	286	106.0	-16557.0	-46881.0	-5700817.0
16	15	3	44	286	107.0	-14070.0	-45851.0	-5700840.0
16	15	3	44	286	108.0	-19439.0	-45327.0	-5700036.0
16	15	3	44	286	109.0	-25302.0	-46177.0	-5699827.0
16	15	3	44	287	110.0	-33114.0	-44986.0	-5701167.0
16	15	3	44	287	111.0	-37681.0	-41371.0	-5701067.0
16	15	3	44	287	112.0	-40697.0	-39282.0	-5700262.0
16	15	3	44	287	113.0	-43310.0	-38120.0	-5699843.0
16	15	3	44	287	114.0	-36479.0	-36299.0	-5701091.0
16	15	3	44	288	115.0	-29766.0	-35474.0	-5701349.0
16	15	3	44	288	116.0	-26622.0	-35828.0	-5700525.0
16	15	3	44	288	117.0	-13279.0	-36336.0	-5699834.0
16	15	3	44	288	118.0	-4825.0	-34241.0	-5700382.0
16	15	3	44	289	119.0	-1597.0	-30624.0	-5701353.0
16	15	3	44	289	120.0	-6373.0	-28882.0	-5700674.0
16	15	3	44	289	121.0	-13706.0	-27337.0	-5699972.0
16	15	3	44	289	122.0	-30367.0	-25996.0	-5700521.0
16	15	3	44	290	123.0	-47199.0	-25327.0	-5701769.0
16	15	3	44	290	124.0	-58794.0	-26439.0	-5701132.0
16	15	3	44	290	125.0	-66844.0	-25324.0	-5700395.0
16	15	3	44	290	126.0	-65907.0	-21416.0	-5700528.0
16	15	3	44	291	127.0	-41269.0	-19471.0	-5701736.0
16	15	3	44	291	128.0	-3084.0	-18284.0	-5701219.0
16	15	3	44	291	129.0	27835.0	-17309.0	-5700502.0
16	15	3	44	291	130.0	63056.0	-16729.0	-5700808.0
16	15	3	44	292	131.0	85053.0	-17308.0	-5701889.0
16	15	3	44	292	132.0	90640.0	-17034.0	-5701379.0
16	15	3	44	292	133.0	78703.0	-15134.0	-5700591.0
16	15	3	44	292	134.0	46989.0	-11444.0	-5700251.0
16	15	3	44	293	135.0	4111.0	-10005.0	-5701396.0
16	15	3	44	293	136.0	-44335.0	-9211.0	-5701309.0
16	15	3	44	293	137.0	-88572.0	-7937.0	-5700484.0
16	15	3	44	293	138.0	-123969.0	-7721.0	-5700157.0
16	15	3	44	294	139.0	-144311.0	-8778.0	-5701441.0
16	15	3	44	294	140.0	-159401.0	-7506.0	-5701398.0
16	15	3	44	294	141.0	-171129.0	-3455.0	-5700570.0
16	15	3	44	294	142.0	-172484.0	-1868.0	-5700459.0
16	15	3	44	295	143.0	-160271.0	-807.0	-5701781.0
16	15	3	44	295	144.0	-134314.0	109.0	-5701586.0
16	15	3	44	295	145.0	-96109.0	771.0	-5700762.0
16	15	3	44	296	146.0	-49570.0	-4.0	-5700172.0
16	15	3	44	388	147.0	-5012.0	-679.0	-5700962.0
16	15	3	44	388	148.0	36732.0	757.0	-5701531.0
16	15	3	44	388	149.0	79673.0	3918.0	-5700782.0
16	15	3	44	389	150.0	127468.0	5314.0	-5700364.0
16	15	3	44	389	151.0	174496.0	6373.0	-5701422.0
16	15	3	44	389	152.0	223613.0	7228.0	-5701593.0
16	15	3	44	389	153.0	286361.0	6385.0	-5700801.0
16	15	3	44	390	154.0	361016.0	5083.0	-5700273.0
16	15	3	44	390	155.0	418900.0	6688.0	-5701456.0
16	15	3	44	390	156.0	463008.0	9649.0	-5702062.0
16	15	3	44	390	157.0	472296.0	10798.0	-5701288.0
16	15	3	44	390	158.0	429761.0	11490.0	-5700696.0
16	15	3	44	391	159.0	334953.0	12148.0	-5701537.0
16	15	3	44	391	160.0	202418.0	12026.0	-5702102.0
16	15	3	44	391	161.0	20273.0	11054.0	-5701317.0
16	15	3	44	391	162.0	-192338.0	10968.0	-5700572.0
16	15	3	44	392	163.0	-447147.0	12421.0	-5700551.0
16	15	3	44	392	164.0	-730324.0	15453.0	-5701707.0
16	15	3	44	392	165.0	-1033682.0	16366.0	-5701209.0
16	15	3	44	392	166.0	-1285771.0	17195.0	-5700399.0
16	15	3	44	393	167.0	-1406395.0	17338.0	-5700440.0
16	15	3	44	393	168.0	-1365044.0	16742.0	-5701669.0
16	15	3	44	393	169.0	-1125698.0	15417.0	-5701269.0
16	15	3	44	393	170.0	-688026.0	16577.0	-5700559.0
16	15	3	44	393	171.0	-107775.0	19251.0	-5700795.0
16	15	3	44	394	172.0	557574.0	20762.0	-5701951.0
16	15	3	44	394	173.0	1225581.0	21258.0	-5701507.0
16	15	3	44	394	174.0	1765818.0	21113.0	-5700764.0
16	15	3	44	394	175.0	2084592.0	20580.0	-5700615.0
16	15	3	44	394	176.0	2155231.0	19597.0	-5702139.0
16	15	3	44	395	177.0	1983114.0	18812.0	-5702041.0
16	15	3	44	395	178.0	1621928.0	19658.0	-5701166.0
16	15	3	44	395	179.0	1141961.0	22398.0	-5700489.0
16	15	3	44	395	180.0	610568.0	23051.0	-5701237.0
16	15	3	44	395	181.0	54193.0	23104.0	-5701742.0
16	15	3	44	396	182.0	-511006.0	23528.0	-5700894.0
16	15	3	44	396	183.0	-1063302.0	22837.0	-5700161.0
16	15	3	44	396	184.0	-1528979.0	21102.0	-5700526.0
16	15	3	44	396	185.0	-1789051.0	21765.0	-5701642.0
16	15	3	44	397	186.0	-1793027.0	24451.0	-5700997.0
16	15	3	44	397	187.0	-1560944.0	25246.0	-5700454.0
16	15	3	44	397	188.0	-1202483.0	25578.0	-5701261.0
16	15	3	44	397	189.0	-807435.0	25887.0	-5701804.0
16	15	3	44	398	190.0	-457052.0	25983.0	-5701051.0
16	15	3	44	398	191.0	-187900.0	24013.0	-5700456.0
16	15	3	44	398	192.0	6074.0	23491.0	-5701219.0
16	15	3	44	398	193.0	121898.0	25004.0	-5702198.0
16	15	3	44	398	194.0	170774.0	27268.0	-5701480.0
16	15	3	44	399	195.0	140901.0	28124.0	-5700760.0
16	15	3	44	399	196.0	41231.0	28176.0	-5700676.0
16	15	3	44	399	197.0	-76082.0	28044.0	-5702034.0
16	15	3	44	400	198.0	-154079.0	27233.0	-5701624.0
16	15	3	44	499	199.0	-169094.0	24939.0	-5700876.0
16	15	3	44	499	200.0	-137647.0	24896.0	-5700672.0
16	15	3	44	499	201.0	-80092.0	27146.0	-5701936.0
16	15	3	44	500	202.0	-20978.0	28174.0	-5701645.0
16	15	3	44	500	203.0	26878.0	28874.0	-5700903.0
16	15	3	44	500	204.0	63656.0	29054.0	-5700854.0
16	15	3	44	500	205.0	72439.0	28476.0	-5702151.0
16	15	3	44	501	206.0	56313.0	26794.0	-5701770.0
16	15	3	44	501	207.0	12151.0	25788.0	-5700980.0
16	15	3	44	501	208.0	-57986.0	27161.0	-5700529.0
16	15	3	44	501	209.0	-146582.0	29634.0	-5701631.0
16	15	3	44	502	210.0	-232839.0	29589.0	-5701601.0
16	15	3	44	502	211.0	-304867.0	29474.0	-5700792.0
16	15	3	44	502	212.0	-347367.0	29649.0	-5700173.0
16	15	3	44	502	213.0	-362022.0	28052.0	-5700834.0
16	15	3	44	502	214.0	-349401.0	25868.0	-5701466.0
16	15	3	44	503	215.0	-336977.0	26349.0	-5700692.0
16	15	3	44	503	216.0	-334761.0	28635.0	-5700022.0
16	15	3	44	503	217.0	-327923.0	29918.0	-5700374.0
16	15	3	44	503	218.0	-307051.0	30149.0	-5701176.0
16	15	3	44	504	219.0	-276357.0	30219.0	-5700521.0
16	15	3	44	504	220.0	-241887.0	29396.0	-5700100.0
16	15	3	44	504	221.0	-201964.0	27079.0	-5701294.0
16	15	3	44	504	222.0	-183866.0	26329.0	-5701529.0
16	15	3	44	504	223.0	-178661.0	27221.0	-5700711.0
16	15	3	44	505	224.0	-175609.0	29638.0	-5700067.0
16	15	3	44	505	225.0	-170983.0	29574.0	-5700497.0
16	15	3	44	505	226.0	-166111.0	29283.0	-5701334.0
16	15	3	44	505	227.0	-153966.0	29041.0	-5700567.0
16	15	3	44	506	228.0	-113351.0	28316.0	-5699865.0
16	15	3	44	506	229.0	-54400.0	26456.0	-5699990.0
16	15	3	44	506	230.0	-5636.0	27317.0	-5701209.0
16	15	3	44	506	231.0	22554.0	29743.0	-5700681.0
16	15	3	44	507	232.0	43654.0	30962.0	-5699951.0
16	15	3	44	507	233.0	58058.0	31239.0	-5699757.0
16	15	3	44	507	234.0	71722.0	31093.0	-5701231.0
16	15	3	44	507	235.0	74774.0	30675.0	-5700969.0
16	15	3	44	508	236.0	70729.0	28837.0	-5700272.0
16	15	3	44	508	237.0	68348.0	28126.0	-5699981.0
16	15	3	44	508	238.0	57950.0	29406.0	-5701329.0
16	15	3	44	508	239.0	46829.0	32343.0	-5701124.0
16	15	3	44	508	240.0	25171.0	33294.0	-5700371.0
16	15	3	44	509	241.0	-5946.0	34128.0	-5700290.0
16	15	3	44	509	242.0	-47876.0	34535.0	-5701507.0
16	15	3	44	509	243.0	-96629.0	34537.0	-5701092.0
16	15	3	44	509	244.0	-130668.0	34341.0	-5700300.0
16	15	3	44	510	245.0	-134527.0	37071.0	-5699852.0
16	15	3	44	510	246.0	-122188.0	41431.0	-5701129.0
16	15	3	44	510	247.0	-92731.0	44670.0	-5701377.0
16	15	3	44	510	248.0	-30074.0	47648.0	-5700594.0
16	15	3	44	511	249.0	40684.0	50261.0	-5700096.0
16	15	3	44	511	250.0	108684.0	52806.0	-5701097.0
16	15	3	44	511	251.0	169531.0	54404.0	-5701381.0
16	15	3	44	512	252.0	207327.0	57423.0	-5700582.0
16	15	3	44	512	253.0	221579.0	62814.0	-5700071.0
16	15	3	44	512	254.0	232211.0	69931.0	-5701040.0
16	15	3	44	512	255.0	244133.0	75822.0	-5701316.0
16	15	3	44	513	0.0	256644.0	81205.0	-5700509.0
16	15	3	44	513	1.0	235130.0	86359.0	-5699870.0
16	15	3	44	513	2.0	186921.0	90511.0	-5700546.0
16	15	3	44	513	3.0	131867.0	94898.0	-5701201.0
16	15	3	44	514	4.0	69571.0	102384.0	-5700368.0
16	15	3	44	514	5.0	-4385.0	110987.0	-5699677.0
16	15	3	44	514	6.0	-63691.0	117798.0	-5700166.0
16	15	3	44	605	7.0	-84084.0	124375.0	-5701125.0
16	15	3	44	605	8.0	-75053.0	130738.0	-5700426.0
16	15	3	44	605	9.0	-60215.0	137536.0	-5699749.0
16	15	3	44	606	10.0	-59722.0	142526.0	-5699631.0
16	15	3	44	606	11.0	-69965.0	148116.0	-5700992.0
16	15	3	44	606	12.0	-88691.0	156067.0	-5700574.0
16	15	3	44	607	13.0	-89528.0	164875.0	-5699875.0
16	15	3	44	607	14.0	-70879.0	172019.0	-5699980.0
16	15	3	44	607	15.0	-48809.0	178433.0	-5701231.0
16	15	3	44	607	16.0	-22947.0	184579.0	-5700637.0
16	15	3	44	608	17.0	10023.0	189093.0	-5699949.0
16	15	3	44	608	18.0	46989.0	192654.0	-5699797.0
16	15	3	44	608	19.0	71893.0	198544.0	-5701064.0
16	15	3	44	608	20.0	85101.0	205823.0	-5700653.0
16	15	3	44	609	21.0	80532.0	211108.0	-5699902.0
16	15	3	44	609	22.0	66901.0	215142.0	-5699288.0
16	15	3	44	609	23.0	44268.0	218716.0	-5700343.0
16	15	3	44	609	24.0	16161.0	220992.0	-5700759.0
16	15	3	44	610	25.0	-6210.0	221930.0	-5700004.0
16	15	3	44	610	26.0	-15772.0	225834.0	-5699538.0
16	15	3	44	610	27.0	-18226.0	228490.0	-5700917.0
16	15	3	44	610	28.0	-11295.0	229661.0	-5701108.0
16	15	3	44	611	29.0	10642.0	230347.0	-5700317.0
16	15	3	44	611	30.0	41181.0	230484.0	-5699592.0
16	15	3	44	611	31.0	75251.0	230010.0	-5699759.0
16	15	3	44	612	32.0	87834.0	227820.0	-5700473.0
16	15	3	44	612	33.0	95359.0	225064.0	-5699884.0
16	15	3	44	612	34.0	94201.0	223256.0	-5699352.0
16	15	3	44	612	35.0	75355.0	221319.0	-5700413.0
16	15	3	44	613	36.0	36804.0	219314.0	-5700516.0
16	15	3	44	613	37.0	-25402.0	218849.0	-5699778.0
16	15	3	44	613	38.0	-114861.0	216254.0	-5699291.0
16	15	3	44	613	39.0	-243932.0	211754.0	-5700415.0
16	15	3	44	614	40.0	-439312.0	205579.0	-5700540.0
16	15	3	44	614	41.0	-720479.0	202309.0	-5699737.0
16	15	3	44	614	42.0	-1139774.0	200248.0	-5699246.0
16	15	3	44	614	43.0	-1537172.0	195988.0	-5700439.0
16	15	3	44	615	44.0	-1411704.0	190947.0	-5700646.0
16	15	3	44	615	45.0	-824702.0	185764.0	-5699940.0
16	15	3	44	615	46.0	-43686.0	180386.0	-5699485.0
16	15	3	44	616	47.0	705118.0	173674.0	-5700559.0
16	15	3	44	616	48.0	1170801.0	166708.0	-5700896.0
16	15	3	44	616	49.0	1349868.0	161216.0	-5700118.0
16	15	3	44	616	50.0	1320471.0	157859.0	-5699489.0
16	15	3	44	714	51.0	1113629.0	153189.0	-5700179.0
16	15	3	44	716	52.0	855889.0	147514.0	-5700858.0
16	15	3	44	717	53.0	583153.0	141872.0	-5700067.0
16	15	3	44	719	54.0	286506.0	134920.0	-5699413.0
16	15	3	44	720	55.0	-20452.0	126703.0	-5699817.0
16	15	3	44	721	56.0	-301934.0	120136.0	-5700677.0
16	15	3	44	722	57.0	-520217.0	116236.0	-5699946.0
16	15	3	44	724	58.0	-702809.0	111986.0	-5699490.0
16	15	3	44	725	59.0	-824930.0	105576.0	-5700734.0
16	15	3	44	726	60.0	-861384.0	99775.0	-5701008.0
16	15	3	44	728	61.0	-864503.0	94022.0	-5700209.0
16	15	3	44	729	62.0	-821736.0	86606.0	-5699604.0
16	15	3	44	731	63.0	-645775.0	79235.0	-5700215.0
16	15	3	44	732	64.0	-394013.0	74003.0	-5701030.0
16	15	3	44	733	65.0	-148153.0	70919.0	-5700345.0
16	15	3	44	734	66.0	13631.0	66214.0	-5699662.0
16	15	3	44	735	67.0	86481.0	60838.0	-5699518.0
16	15	3	44	736	68.0	109181.0	55443.0	-5700732.0
16	15	3	44	737	69.0	96361.0	49864.0	-5700281.0
16	15	3	44	738	70.0	79249.0	43211.0	-5699566.0
16	15	3	44	739	71.0	88759.0	38001.0	-5699537.0
16	15	3	44	740	72.0	133223.0	34879.0	-5701003.0
16	15	3	44	741	73.0	198748.0	31054.0	-5700663.0
16	15	3	44	742	74.0	268367.0	26312.0	-5699983.0
16	15	3	44	743	75.0	325900.0	21916.0	-5700094.0
16	15	3	44	744	76.0	361506.0	16824.0	-5701203.0
16	15	3	44	744	77.0	378439.0	11680.0	-5700666.0
16	15	3	44	745	78.0	383634.0	7117.0	-5699934.0
16	15	3	44	746	79.0	390537.0	2756.0	-5699857.0
16	15	3	44	747	80.0	393177.0	-2018.0	-5701172.0
16	15	3	44	748	81.0	390095.0	-6789.0	-5700827.0
16	15	3	44	749	82.0	378731.0	-11712.0	-5700091.0
16	15	3	44	750	83.0	372493.0	-16781.0	-5699662.0
16	15	3	44	750	84.0	363309.0	-22987.0	-5700918.0
16	15	3	44	751	85.0	354424.0	-29862.0	-5701032.0
16	15	3	44	752	86.0	344508.0	-34965.0	-5700242.0
16	15	3	44	752	87.0	325178.0	-39841.0	-5699692.0
16	15	3	44	752	88.0	313856.0	-44315.0	-5700756.0
16	15	3	44	752	89.0	310051.0	-48513.0	-5701289.0
16	15	3	44	753	90.0	309898.0	-52766.0	-5700496.0
16	15	3	44	753	91.0	320348.0	-54849.0	-5700009.0
16	15	3	44	753	92.0	328161.0	-59955.0	-5701128.0
16	15	3	44	754	93.0	337639.0	-64024.0	-5701487.0
16	15	3	44	755	94.0	339386.0	-67360.0	-5700674.0
16	15	3	44	755	95.0	329608.0	-71316.0	-5700113.0
16	15	3	44	756	96.0	307364.0	-74952.0	-5701061.0
16	15	3	44	756	97.0	270048.0	-78413.0	-5701719.0
16	15	3	44	757	98.0	217863.0	-82476.0	-5700910.0
16	15	3	44	757	99.0	162373.0	-86796.0	-5700227.0
16	15	3	44	757	100.0	99248.0	-91764.0	-5700590.0
16	15	3	44	758	101.0	38838.0	-95326.0	-5701642.0
16	15	3	44	758	102.0	-14902.0	-97850.0	-5700980.0
16	15	3	44	758	103.0	-54839.0	-98100.0	-5700291.0
16	15	3	44	758	104.0	-83652.0	-99822.0	-5700407.0
16	15	3	44	759	105.0	-98157.0	-102418.0	-5701710.0
16	15	3	44	759	106.0	-106818.0	-104557.0	-5701178.0
16	15	3	44	759	107.0	-114974.0	-108011.0	-5700516.0
16	15	3	44	760	108.0	-116331.0	-110901.0	-5700911.0
16	15	3	44	760	109.0	-110847.0	-110809.0	-5702010.0
16	15	3	44	760	110.0	-102192.0	-109548.0	-5701371.0
16	15	3	44	760	111.0	-91422.0	-110175.0	-5700651.0
16	15	3	44	761	112.0	-76978.0	-111035.0	-5700672.0
16	15	3	44	761	113.0	-66156.0	-111752.0	-5702052.0
16	15	3	44	762	114.0	-60958.0	-113192.0	-5701598.0
16	15	3	44	762	115.0	-47906.0	-115745.0	-5700822.0
16	15	3	44	762	116.0	-33726.0	-116006.0	-5700269.0
16	15	3	44	762	117.0	-20891.0	-113754.0	-5701291.0
16	15	3	44	763	118.0	-2156.0	-112484.0	-5701552.0
16	15	3	44	763	119.0	17940.0	-111960.0	-5700792.0
16	15	3	44	763	120.0	32742.0	-111821.0	-5700373.0
16	15	3	44	764	121.0	52038.0	-111273.0	-5701481.0
16	15	3	44	764	122.0	68693.0	-111844.0	-5701506.0
16	15	3	44	764	123.0	79721.0	-112622.0	-5700731.0
16	15	3	44	764	124.0	78208.0	-111341.0	-5700187.0
16	15	3	44	765	125.0	70068.0	-107756.0	-5701099.0
16	15	3	44	765	126.0	61454.0	-105436.0	-5701354.0
16	15	3	44	765	127.0	50318.0	-104144.0	-5700537.0
16	15	3	44	766	128.0	41545.0	-102632.0	-5700166.0
16	15	3	44	766	129.0	35796.0	-101898.0	-5701454.0
16	15	3	44	826	130.0	31332.0	-102766.0	-5701587.0
16	15	3	44	826	131.0	34261.0	-101411.0	-5700737.0
16	15	3	44	827	132.0	40673.0	-97459.0	-5700093.0
16	15	3	44	827	133.0	37412.0	-94969.0	-5700689.0
16	15	3	44	827	134.0	35113.0	-93219.0	-5701520.0
16	15	3	44	828	135.0	27481.0	-91826.0	-5700785.0
16	15	3	44	828	136.0	17845.0	-90967.0	-5700129.0
16	15	3	44	828	137.0	1166.0	-91783.0	-5700729.0
16	15	3	44	829	138.0	-10963.0	-91864.0	-5701787.0
16	15	3	44	829	139.0	-24347.0	-89964.0	-5701098.0
16	15	3	44	829	140.0	-37752.0	-86474.0	-5700471.0
16	15	3	44	829	141.0	-42368.0	-84957.0	-5701217.0
16	15	3	44	830	142.0	-41758.0	-83175.0	-5701949.0
16	15	3	44	830	143.0	-37404.0	-82201.0	-5701195.0
16	15	3	44	830	144.0	-27509.0	-82617.0	-5700516.0
16	15	3	44	831	145.0	-17652.0	-83617.0	-5700542.0
16	15	3	44	831	146.0	-8824.0	-82573.0	-5701870.0
16	15	3	44	831	147.0	-280.0	-79711.0	-5701364.0
16	15	3	44	831	148.0	9441.0	-78105.0	-5700633.0
16	15	3	44	832	149.0	19418.0	-77816.0	-5700366.0
16	15	3	44	832	150.0	30187.0	-76535.0	-5701678.0
16	15	3	44	832	151.0	36034.0	-76242.0	-5701483.0
16	15	3	44	832	152.0	33429.0	-77718.0	-5700745.0
16	15	3	44	833	153.0	26488.0	-78311.0	-5700160.0
16	15	3	44	833	154.0	15964.0	-77250.0	-5701121.0
16	15	3	44	833	155.0	-2631.0	-74761.0	-5701546.0
16	15	3	44	833	156.0	-22343.0	-74001.0	-5700824.0
16	15	3	44	834	157.0	-45748.0	-73349.0	-5700398.0
16	15	3	44	834	158.0	-66076.0	-73401.0	-5701754.0
16	15	3	44	834	159.0	-81270.0	-74456.0	-5701839.0
16	15	3	44	834	160.0	-96312.0	-76087.0	-5701075.0
16	15	3	44	835	161.0	-104602.0	-76174.0	-5700531.0
16	15	3	44	835	162.0	-110604.0	-73540.0	-5701561.0
16	15	3	44	835	163.0	-118243.0	-72562.0	-5701851.0
16	15	3	44	937	164.0	-119484.0	-72175.0	-5701055.0
16	15	3	44	938	165.0	-121622.0	-72149.0	-5700440.0
16	15	3	44	938	166.0	-118179.0	-72786.0	-5701064.0
16	15	3	44	938	167.0	-120159.0	-74460.0	-5701890.0
16	15	3	44	939	168.0	-118586.0	-75993.0	-5701149.0
16	15	3	44	939	169.0	-109814.0	-75528.0	-5700504.0
16	15	3	44	939	170.0	-95877.0	-72784.0	-5700817.0
16	15	3	44	940	171.0	-77288.0	-72200.0	-5701808.0
16	15	3	44	940	172.0	-57886.0	-71853.0	-5701160.0
16	15	3	44	940	173.0	-33465.0	-71797.0	-5700529.0
16	15	3	44	940	174.0	-7428.0	-72827.0	-5701034.0
16	15	3	44	941	175.0	22536.0	-74568.0	-5701993.0
16	15	3	44	941	176.0	53614.0	-73872.0	-5701275.0
16	15	3	44	941	177.0	79026.0	-71216.0	-5700610.0
16	15	3	44	942	178.0	99684.0	-69978.0	-5700921.0
16	15	3	44	942	179.0	113301.0	-69599.0	-5701869.0
16	15	3	44	942	180.0	124208.0	-69683.0	-5701227.0
16	15	3	44	942	181.0	135038.0	-70391.0	-5700534.0
16	15	3	44	943	182.0	148878.0	-72069.0	-5700490.0
16	15	3	44	943	183.0	162767.0	-73151.0	-5701920.0
16	15	3	44	943	184.0	167369.0	-72393.0	-5701560.0
16	15	3	44	944	185.0	158544.0	-69202.0	-5700786.0
16	15	3	44	944	186.0	140222.0	-68350.0	-5700644.0
16	15	3	44	944	187.0	121116.0	-68362.0	-5702129.0
16	15	3	44	944	188.0	100470.0	-68318.0	-5701848.0
16	15	3	44	945	189.0	77642.0	-68549.0	-5701081.0
16	15	3	44	945	190.0	67352.0	-70280.0	-5700864.0
16	15	3	44	945	191.0	53948.0	-69934.0	-5702107.0
16	15	3	44	945	192.0	38844.0	-66753.0	-5701831.0
16	15	3	44	946	193.0	29408.0	-65261.0	-5701042.0
16	15	3	44	946	194.0	21233.0	-63981.0	-5700929.0
16	15	3	44	946	195.0	14086.0	-63034.0	-5702377.0
16	15	3	44	947	196.0	4786.0	-63022.0	-5702192.0
16	15	3	44	947	197.0	-7826.0	-64474.0	-5701399.0
16	15	3	44	947	198.0	-20127.0	-64789.0	-5700905.0
16	15	3	44	947	199.0	-41968.0	-63751.0	-5701916.0
16	15	3	44	948	200.0	-58987.0	-60624.0	-5702222.0
16	15	3	44	948	201.0	-73334.0	-58881.0	-5701412.0
16	15	3	44	949	202.0	-88594.0	-58121.0	-5701106.0
16	15	3	44	949	203.0	-100821.0	-57453.0	-5702367.0
16	15	3	44	949	204.0	-108459.0	-57473.0	-5702351.0
16	15	3	44	950	205.0	-116149.0	-58804.0	-5701544.0
16	15	3	44	950	206.0	-115067.0	-58132.0	-5701053.0
16	15	3	44	950	207.0	-111036.0	-54937.0	-5702211.0
16	15	3	44	951	208.0	-101441.0	-53284.0	-5702621.0
16	15	3	44	951	209.0	-88404.0	-52302.0	-5701804.0
16	15	3	44	951	210.0	-75192.0	-51232.0	-5701162.0
16	15	3	44	952	211.0	-63206.0	-50954.0	-5701665.0
16	15	3	44	952	212.0	-45808.0	-52044.0	-5702417.0
16	15	3	44	952	213.0	-23483.0	-52322.0	-5701692.0
16	15	3	44	953	214.0	-2987.0	-50617.0	-5701011.0
16	15	3	44	953	215.0	4801.0	-46631.0	-5701372.0
16	15	3	44	953	216.0	13218.0	-45332.0	-5702384.0
16	15	3	44	954	217.0	7536.0	-44502.0	-5701726.0
16	15	3	44	954	218.0	2173.0	-43156.0	-5701064.0
16	15	3	44	954	219.0	-909.0	-43011.0	-5701883.0
16	15	3	45	46	220.0	-9764.0	-44688.0	-5702617.0
16	15	3	45	47	221.0	-23985.0	-43589.0	-5701884.0
16	15	3	45	47	222.0	-38037.0	-39996.0	-5701157.0
16	15	3	45	47	223.0	-59326.0	-38047.0	-5701591.0
16	15	3	45	47	224.0	-80389.0	-36853.0	-5702667.0
16	15	3	45	48	225.0	-102992.0	-35946.0	-5702023.0
16	15	3	45	48	226.0	-121999.0	-35762.0	-5701259.0
16	15	3	45	48	227.0	-142366.0	-36681.0	-5701156.0
16	15	3	45	49	228.0	-159574.0	-36716.0	-5702361.0
16	15	3	45	49	229.0	-172264.0	-34876.0	-5701995.0
16	15	3	45	49	230.0	-181133.0	-31671.0	-5701199.0
16	15	3	45	49	231.0	-188059.0	-30104.0	-5701086.0
16	15	3	45	50	232.0	-194080.0	-28566.0	-5702392.0
16	15	3	45	50	233.0	-185916.0	-27402.0	-5702145.0
16	15	3	45	50	234.0	-173485.0	-27654.0	-5701344.0
16	15	3	45	50	235.0	-156867.0	-29081.0	-5701474.0
16	15	3	45	51	236.0	-140466.0	-27827.0	-5702725.0
16	15	3	45	51	237.0	-121114.0	-24494.0	-5702356.0
16	15	3	45	52	238.0	-97877.0	-23048.0	-5701544.0
16	15	3	45	52	239.0	-73949.0	-22084.0	-5701284.0
16	15	3	45	52	240.0	-46589.0	-21203.0	-5702378.0
16	15	3	45	52	241.0	-21709.0	-20899.0	-5702192.0
16	15	3	45	53	242.0	-3430.0	-21922.0	-5701389.0
16	15	3	45	53	243.0	8161.0	-21918.0	-5700917.0
16	15	3	45	53	244.0	11331.0	-20372.0	-5701830.0
16	15	3	45	53	245.0	10495.0	-17405.0	-5701949.0
16	15	3	45	54	246.0	10933.0	-16286.0	-5701141.0
16	15	3	45	54	247.0	6478.0	-15167.0	-5700706.0
16	15	3	45	54	248.0	-316.0	-14189.0	-5701809.0
16	15	3	45	54	249.0	-8497.0	-14176.0	-5702004.0
16	15	3	45	55	250.0	-17494.0	-15063.0	-5701207.0
16	15	3	45	55	251.0	-31510.0	-13506.0	-5700788.0
16	15	3	45	55	252.0	-44886.0	-10182.0	-5702058.0
16	15	3	45	55	253.0	-61281.0	-8969.0	-5702326.0
16	15	3	45	56	254.0	-70225.0	-8091.0	-5701493.0
16	15	3	45	56	255.0	-72262.0	-7013.0	-5701029.0
16	15	3	45	56	0.0	-71591.0	-7056.0	-5702153.0
16	15	3	45	56	1.0	-67321.0	-8147.0	-5702359.0
16	15	3	45	57	2.0	-58319.0	-8414.0	-5701569.0
16	15	3	45	57	3.0	-37069.0	-6819.0	-5700857.0
16	15	3	45	57	4.0	-6507.0	-4339.0	-5701494.0
16	15	3	45	58	5.0	39104.0	-3181.0	-5702276.0
16	15	3	45	58	6.0	102263.0	-2179.0	-5701609.0
16	15	3	45	58	7.0	180544.0	-1113.0	-5700892.0
16	15	3	45	59	8.0	267366.0	-1244.0	-5701362.0
16	15	3	45	59	9.0	359698.0	-2698.0	-5702382.0
16	15	3	45	59	10.0	452193.0	-1709.0	-5701806.0
16	15	3	45	60	11.0	530799.0	1244.0	-5701129.0
16	15	3	45	60	12.0	583171.0	2602.0	-5701889.0
16	15	3	45	60	13.0	591229.0	3671.0	-5702739.0
16	15	3	45	60	14.0	536048.0	4138.0	-5702091.0
16	15	3	45	61	15.0	428700.0	4011.0	-5701294.0
16	15	3	45	61	16.0	288236.0	2871.0	-5701709.0
16	15	3	45	161	17.0	106162.0	2738.0	-5702933.0
16	15	3	45	161	18.0	-100752.0	4333.0	-5702404.0
16	15	3	45	161	19.0	-346409.0	7179.0	-5701532.0
16	15	3	45	162	20.0	-622337.0	8118.0	-5701237.0
16	15	3	45	162	21.0	-910786.0	8421.0	-5702405.0
16	15	3	45	162	22.0	-1179762.0	9093.0	-5702234.0
16	15	3	45	162	23.0	-1341950.0	8778.0	-5701402.0
16	15	3	45	163	24.0	-1367299.0	7169.0	-5701039.0
16	15	3	45	163	25.0	-1233704.0	8957.0	-5702333.0
16	15	3	45	163	26.0	-934697.0	11804.0	-5702502.0
16	15	3	45	163	27.0	-497843.0	12225.0	-5701747.0
16	15	3	45	164	28.0	28614.0	13016.0	-5701441.0
16	15	3	45	164	29.0	600239.0	13693.0	-5702804.0
16	15	3	45	164	30.0	1143367.0	13473.0	-5703006.0
16	15	3	45	165	31.0	1551332.0	11923.0	-5702207.0
16	15	3	45	165	32.0	1734601.0	11493.0	-5701665.0
16	15	3	45	165	33.0	1645879.0	12412.0	-5702641.0
16	15	3	45	165	34.0	1334928.0	15014.0	-5703077.0
16	15	3	45	166	35.0	962274.0	16315.0	-5702215.0
16	15	3	45	166	36.0	649561.0	16642.0	-5701474.0
16	15	3	45	166	37.0	419112.0	16799.0	-5702007.0
16	15	3	45	166	38.0	193172.0	15797.0	-5702977.0
16	15	3	45	167	39.0	-69042.0	14080.0	-5702294.0
16	15	3	45	167	40.0	-403828.0	14768.0	-5701522.0
16	15	3	45	167	41.0	-800464.0	17183.0	-5701714.0
16	15	3	45	167	42.0	-1162212.0	18201.0	-5702719.0
16	15	3	45	168	43.0	-1357782.0	18795.0	-5702126.0
16	15	3	45	168	44.0	-1325453.0	19198.0	-5701448.0
16	15	3	45	168	45.0	-1099244.0	18624.0	-5702166.0
16	15	3	45	168	46.0	-782981.0	17276.0	-5703029.0
16	15	3	45	169	47.0	-462817.0	17003.0	-5702381.0
16	15	3	45	169	48.0	-197844.0	18124.0	-5701654.0
16	15	3	45	169	49.0	-12458.0	20290.0	-5701925.0
16	15	3	45	170	50.0	105294.0	20786.0	-5703237.0
16	15	3	45	170	51.0	157962.0	20994.0	-5702738.0
16	15	3	45	170	52.0	164185.0	21143.0	-5701890.0
16	15	3	45	170	53.0	123974.0	19904.0	-5701671.0
16	15	3	45	171	54.0	43069.0	17748.0	-5702971.0
16	15	3	45	171	55.0	-33885.0	18373.0	-5702841.0
16	15	3	45	171	56.0	-74750.0	20763.0	-5702009.0
16	15	3	45	172	57.0	-54238.0	21930.0	-5701606.0
16	15	3	45	172	58.0	5356.0	22254.0	-5702662.0
16	15	3	45	172	59.0	77044.0	22543.0	-5702698.0
16	15	3	45	172	60.0	139120.0	21699.0	-5701886.0
16	15	3	45	173	61.0	160418.0	19416.0	-5701585.0
16	15	3	45	173	62.0	151733.0	18517.0	-5702820.0
16	15	3	45	173	63.0	119944.0	19657.0	-5702777.0
16	15	3	45	174	64.0	61108.0	21512.0	-5701941.0
16	15	3	45	174	65.0	-21564.0	21711.0	-5701477.0
16	15	3	45	174	66.0	-127375.0	21771.0	-5702495.0
16	15	3	45	175	67.0	-242921.0	22292.0	-5702642.0
16	15	3	45	175	68.0	-345338.0	21397.0	-5701840.0
16	15	3	45	175	69.0	-404898.0	19068.0	-5701153.0
16	15	3	45	175	70.0	-418668.0	19790.0	-5701680.0
16	15	3	45	270	71.0	-384409.0	21621.0	-5702646.0
16	15	3	45	271	72.0	-320120.0	21730.0	-5701975.0
16	15	3	45	271	73.0	-254055.0	22134.0	-5701287.0
16	15	3	45	272	74.0	-199803.0	22100.0	-5701845.0
16	15	3	45	272	75.0	-159639.0	21503.0	-5702824.0
16	15	3	45	272	76.0	-128514.0	20586.0	-5702149.0
16	15	3	45	272	77.0	-92305.0	21696.0	-5701461.0
16	15	3	45	273	78.0	-67357.0	22384.0	-5702003.0
16	15	3	45	273	79.0	-46519.0	23073.0	-5702650.0
16	15	3	45	273	80.0	-28081.0	23324.0	-5701954.0
16	15	3	45	273	81.0	-34757.0	23476.0	-5701202.0
16	15	3	45	274	82.0	-65786.0	23135.0	-5701756.0
16	15	3	45	274	83.0	-94912.0	21903.0	-5702611.0
16	15	3	45	274	84.0	-100831.0	20019.0	-5702011.0
16	15	3	45	275	85.0	-111458.0	20194.0	-5701218.0
16	15	3	45	275	86.0	-145874.0	21009.0	-5701182.0
16	15	3	45	275	87.0	-177126.0	22193.0	-5702436.0
16	15	3	45	275	88.0	-188652.0	24384.0	-5702118.0
16	15	3	45	276	89.0	-171497.0	27415.0	-5701302.0
16	15	3	45	276	90.0	-126277.0	27774.0	-5701100.0
16	15	3	45	276	91.0	-71406.0	26498.0	-5702532.0
16	15	3	45	277	92.0	-26934.0	28883.0	-5702439.0
16	15	3	45	277	93.0	-10748.0	29969.0	-5701649.0
16	15	3	45	277	94.0	-6736.0	29897.0	-5701318.0
16	15	3	45	277	95.0	-4162.0	30339.0	-5702551.0
16	15	3	45	278	96.0	-10659.0	31106.0	-5702516.0
16	15	3	45	278	97.0	-4324.0	31313.0	-5701710.0
16	15	3	45	278	98.0	15569.0	30529.0	-5701196.0
16	15	3	45	279	99.0	46798.0	30062.0	-5702229.0
16	15	3	45	279	100.0	90880.0	30509.0	-5702770.0
16	15	3	45	279	101.0	140836.0	32754.0	-5701967.0
16	15	3	45	280	102.0	176090.0	36892.0	-5701271.0
16	15	3	45	280	103.0	178973.0	38865.0	-5701637.0
16	15	3	45	280	104.0	145124.0	41018.0	-5702654.0
16	15	3	45	280	105.0	85124.0	42740.0	-5702006.0
16	15	3	45	281	106.0	34648.0	43098.0	-5701334.0
16	15	3	45	281	107.0	11447.0	45684.0	-5701894.0
16	15	3	45	282	108.0	-5350.0	50938.0	-5702863.0
16	15	3	45	282	109.0	-24034.0	55201.0	-5702182.0
16	15	3	45	282	110.0	-31085.0	58726.0	-5701480.0
16	15	3	45	283	111.0	-29002.0	62532.0	-5701777.0
16	15	3	45	283	112.0	-26591.0	66451.0	-5702947.0
