16	15	4	51	763	39.0	-8388.0	-41806.0	-5691225.0
16	15	4	51	765	40.0	17457.0	-41699.0	-5690484.0
16	15	4	51	766	41.0	34470.0	-40213.0	-5689801.0
16	15	4	51	767	42.0	54302.0	-38742.0	-5690658.0
16	15	4	51	769	43.0	78821.0	-38265.0	-5691151.0
16	15	4	51	770	44.0	108961.0	-39237.0	-5690424.0
16	15	4	51	772	45.0	143922.0	-38054.0	-5689940.0
16	15	4	51	773	46.0	173734.0	-35069.0	-5691185.0
16	15	4	51	775	47.0	198101.0	-34899.0	-5691162.0
16	15	4	51	777	48.0	219107.0	-35302.0	-5690416.0
16	15	4	51	778	49.0	235066.0	-32916.0	-5689726.0
16	15	4	51	780	50.0	243200.0	-32140.0	-5690854.0
16	15	4	51	799	51.0	244095.0	-32997.0	-5691232.0
16	15	4	51	799	52.0	248163.0	-33306.0	-5690546.0
16	15	4	51	800	53.0	263298.0	-30713.0	-5689756.0
16	15	4	51	800	54.0	273185.0	-30369.0	-5690465.0
16	15	4	51	800	55.0	266818.0	-31486.0	-5691418.0
16	15	4	51	801	56.0	248651.0	-30439.0	-5690824.0
16	15	4	51	801	57.0	218984.0	-29545.0	-5689996.0
16	15	4	51	802	58.0	176453.0	-29021.0	-5690292.0
16	15	4	51	802	59.0	142008.0	-30361.0	-5691311.0
16	15	4	51	802	60.0	121971.0	-29169.0	-5690798.0
16	15	4	51	803	61.0	113957.0	-28361.0	-5690016.0
16	15	4	51	828	62.0	106678.0	-29206.0	-5690662.0
16	15	4	51	878	63.0	94494.0	-30400.0	-5691562.0
16	15	4	51	878	64.0	71886.0	-28619.0	-5690967.0
16	15	4	51	879	65.0	42529.0	-28363.0	-5690168.0
16	15	4	51	879	66.0	13749.0	-27837.0	-5690691.0
16	15	4	51	879	67.0	-7689.0	-27816.0	-5691749.0
16	15	4	51	894	68.0	-28715.0	-28271.0	-5691164.0
16	15	4	51	894	69.0	-45919.0	-28789.0	-5690370.0
16	15	4	51	895	70.0	-41977.0	-28896.0	-5690109.0
16	15	4	51	895	71.0	-24987.0	-29041.0	-5691490.0
16	15	4	51	896	72.0	-2053.0	-28898.0	-5691317.0
16	15	4	51	896	73.0	27424.0	-29397.0	-5690551.0
16	15	4	51	897	74.0	56827.0	-29771.0	-5690137.0
16	15	4	51	897	75.0	80467.0	-29194.0	-5691349.0
16	15	4	51	898	76.0	88164.0	-28821.0	-5691229.0
16	15	4	51	898	77.0	84138.0	-28861.0	-5690458.0
16	15	4	51	898	95.0	-4254.0	-28213.0	-5690504.0
16	15	4	51	899	96.0	18601.0	-29730.0	-5690231.0
16	15	4	51	899	97.0	33903.0	-31321.0	-5689711.0
16	15	4	51	900	98.0	41267.0	-31013.0	-5690751.0
16	15	4	51	900	99.0	43366.0	-30929.0	-5691076.0
16	15	4	51	901	100.0	31309.0	-30860.0	-5690247.0
16	15	4	51	923	101.0	9469.0	-30611.0	-5689610.0
16	15	4	51	923	102.0	-13151.0	-30146.0	-5690259.0
16	15	4	51	923	103.0	-52039.0	-28202.0	-5690892.0
16	15	4	51	924	104.0	411.0	-26748.0	-5690112.0
16	15	4	51	924	105.0	62518.0	-25638.0	-5689422.0
16	15	4	51	924	106.0	114642.0	-25542.0	-5689894.0
16	15	4	51	925	107.0	137821.0	-25311.0	-5690825.0
16	15	4	51	925	108.0	126204.0	-24412.0	-5690072.0
16	15	4	51	925	109.0	119457.0	-24479.0	-5689436.0
16	15	4	51	926	110.0	114686.0	-24417.0	-5690271.0
16	15	4	51	926	111.0	88598.0	-24024.0	-5691070.0
16	15	4	51	926	112.0	60571.0	-23529.0	-5690304.0
16	15	4	51	927	113.0	37479.0	-22909.0	-5689672.0
16	15	4	51	927	114.0	32979.0	-22202.0	-5690516.0
16	15	4	51	927	115.0	5713.0	-22107.0	-5691027.0
16	15	4	51	928	117.0	61318.0	-21331.0	-5689531.0
16	15	4	51	928	118.0	194621.0	-20975.0	-5689802.0
16	15	4	51	928	119.0	365479.0	-22427.0	-5690856.0
16	15	4	51	929	120.0	528849.0	-22711.0	-5690314.0
16	15	4	51	929	121.0	593094.0	-22487.0	-5689542.0
16	15	4	51	929	122.0	530384.0	-22306.0	-5689501.0
16	15	4	51	930	123.0	349136.0	-21906.0	-5690734.0
16	15	4	51	952	124.0	111731.0	-21379.0	-5690340.0
16	15	4	51	965	125.0	-119166.0	-20644.0	-5689537.0
16	15	4	51	966	126.0	-284098.0	-18277.0	-5689950.0
16	15	4	51	966	127.0	-362193.0	-17514.0	-5691231.0
16	15	4	51	966	128.0	-351806.0	-16636.0	-5690700.0
16	15	4	51	966	129.0	-258469.0	-16023.0	-5689902.0
16	15	4	51	967	130.0	-46203.0	-15593.0	-5690048.0
16	15	4	51	967	131.0	246939.0	-15257.0	-5691361.0
16	15	4	51	967	132.0	539303.0	-14002.0	-5690997.0
16	15	4	51	967	133.0	767742.0	-13192.0	-5690217.0
16	15	4	51	968	134.0	844827.0	-13037.0	-5689801.0
16	15	4	51	968	135.0	766216.0	-12632.0	-5690923.0
16	15	4	51	968	136.0	411963.0	-11475.0	-5691096.0
16	15	4	51	968	137.0	-95826.0	-11251.0	-5690201.0
16	15	4	51	969	138.0	-529395.0	-10459.0	-5689705.0
16	15	4	51	969	140.0	-341471.0	-9813.0	-5691016.0
16	15	4	51	969	141.0	306138.0	-10701.0	-5690261.0
16	15	4	51	969	142.0	1072698.0	-10992.0	-5689905.0
16	15	4	51	969	143.0	1677656.0	-10834.0	-5691127.0
16	15	4	51	970	144.0	2013647.0	-10402.0	-5691387.0
16	15	4	51	970	145.0	2187458.0	-10107.0	-5690586.0
16	15	4	51	997	146.0	2206132.0	-9202.0	-5689891.0
16	15	4	52	10	147.0	1832988.0	-8216.0	-5690383.0
16	15	4	52	10	148.0	1025866.0	-6484.0	-5691292.0
16	15	4	52	10	149.0	-4615.0	-5621.0	-5690500.0
16	15	4	52	11	150.0	-939704.0	-4908.0	-5689713.0
16	15	4	52	11	151.0	-1312876.0	-4107.0	-5690304.0
16	15	4	52	11	152.0	-1168531.0	-3938.0	-5691096.0
16	15	4	52	12	153.0	-992663.0	-3642.0	-5690409.0
16	15	4	52	12	154.0	-963759.0	-3594.0	-5689709.0
16	15	4	52	12	155.0	-1121065.0	-3717.0	-5690412.0
16	15	4	52	12	156.0	-1173234.0	-2676.0	-5691010.0
16	15	4	52	13	157.0	-997307.0	-1995.0	-5690292.0
16	15	4	52	13	158.0	-804599.0	-1505.0	-5689613.0
16	15	4	52	13	159.0	-759396.0	-1426.0	-5690537.0
16	15	4	52	14	160.0	-868235.0	-828.0	-5691266.0
16	15	4	52	14	162.0	-928499.0	-126.0	-5689803.0
16	15	4	52	14	163.0	-808089.0	-167.0	-5690347.0
16	15	4	52	14	164.0	-631056.0	-1294.0	-5691507.0
16	15	4	52	15	165.0	-423929.0	-1217.0	-5690969.0
16	15	4	52	15	166.0	-367419.0	-502.0	-5690152.0
16	15	4	52	15	167.0	-352559.0	201.0	-5690094.0
16	15	4	52	15	168.0	-375014.0	681.0	-5691254.0
16	15	4	52	45	169.0	-412394.0	1184.0	-5690906.0
16	15	4	52	46	170.0	-385717.0	1766.0	-5690073.0
16	15	4	52	47	171.0	-234975.0	3533.0	-5690153.0
16	15	4	52	48	172.0	-169060.0	4241.0	-5691278.0
16	15	4	52	48	173.0	-265226.0	4719.0	-5690867.0
16	15	4	52	49	174.0	-273101.0	4626.0	-5690014.0
16	15	4	52	50	175.0	-180141.0	4616.0	-5689927.0
16	15	4	52	51	176.0	-20020.0	4814.0	-5691372.0
16	15	4	52	52	177.0	70008.0	5109.0	-5691180.0
16	15	4	52	53	178.0	193783.0	5508.0	-5690343.0
16	15	4	52	54	179.0	202011.0	6490.0	-5689991.0
16	15	4	52	55	180.0	131037.0	6873.0	-5691232.0
16	15	4	52	56	181.0	136310.0	6611.0	-5691201.0
16	15	4	52	57	182.0	160609.0	6857.0	-5690388.0
16	15	4	52	58	183.0	183871.0	7115.0	-5689894.0
16	15	4	52	59	185.0	233453.0	7029.0	-5691331.0
16	15	4	52	60	186.0	248428.0	5839.0	-5690596.0
16	15	4	52	61	187.0	266210.0	5463.0	-5690192.0
16	15	4	52	62	188.0	228406.0	5351.0	-5691377.0
16	15	4	52	63	189.0	220392.0	5345.0	-5691392.0
16	15	4	52	64	190.0	259171.0	5551.0	-5690599.0
16	15	4	52	88	191.0	278701.0	5528.0	-5690012.0
16	15	4	52	88	192.0	311466.0	6034.0	-5691074.0
16	15	4	52	110	193.0	257299.0	8339.0	-5691505.0
16	15	4	52	111	194.0	246658.0	9211.0	-5690737.0
16	15	4	52	112	195.0	189979.0	9243.0	-5689968.0
16	15	4	52	112	196.0	161709.0	9211.0	-5690422.0
16	15	4	52	113	197.0	131836.0	9516.0	-5691434.0
16	15	4	52	113	198.0	116672.0	9953.0	-5690842.0
16	15	4	52	113	199.0	143314.0	10347.0	-5690082.0
16	15	4	52	114	200.0	138738.0	10612.0	-5690561.0
16	15	4	52	114	201.0	190293.0	10642.0	-5691557.0
16	15	4	52	115	202.0	183804.0	11325.0	-5690967.0
16	15	4	52	115	203.0	216266.0	11616.0	-5690284.0
16	15	4	52	116	204.0	203021.0	11428.0	-5691213.0
16	15	4	52	116	205.0	187294.0	11675.0	-5691948.0
16	15	4	52	117	207.0	149646.0	12156.0	-5690472.0
16	15	4	52	117	208.0	189480.0	11881.0	-5690971.0
16	15	4	52	117	209.0	191790.0	10220.0	-5691716.0
16	15	4	52	118	210.0	238984.0	10033.0	-5691111.0
16	15	4	52	118	211.0	213281.0	10358.0	-5690254.0
16	15	4	52	119	212.0	190608.0	10801.0	-5690393.0
16	15	4	52	119	213.0	131065.0	11503.0	-5691696.0
16	15	4	52	179	214.0	46924.0	12073.0	-5691314.0
16	15	4	52	180	215.0	-15507.0	13639.0	-5690478.0
16	15	4	52	180	216.0	-92892.0	16324.0	-5690377.0
16	15	4	52	181	217.0	-114922.0	17893.0	-5691727.0
16	15	4	52	181	218.0	-154742.0	18902.0	-5691471.0
16	15	4	52	182	219.0	-156267.0	20617.0	-5690666.0
16	15	4	52	199	220.0	-172284.0	22081.0	-5690448.0
16	15	4	52	199	221.0	-163024.0	23411.0	-5691761.0
16	15	4	52	200	222.0	-151935.0	24802.0	-5691621.0
16	15	4	52	201	223.0	-162538.0	27078.0	-5690787.0
16	15	4	52	201	224.0	-169069.0	29323.0	-5690364.0
16	15	4	52	202	225.0	-223652.0	31660.0	-5691658.0
16	15	4	52	202	226.0	-218801.0	34614.0	-5691752.0
16	15	4	52	203	227.0	-218865.0	38125.0	-5690960.0
16	15	4	52	203	228.0	-151073.0	40912.0	-5690284.0
16	15	4	52	204	252.0	-468631.0	112209.0	-5690401.0
16	15	4	52	204	253.0	-712315.0	112929.0	-5691075.0
16	15	4	52	205	254.0	-1151432.0	112581.0	-5691708.0
16	15	4	52	205	255.0	-1892029.0	112799.0	-5690990.0
16	15	4	52	206	0.0	-3470144.0	112769.0	-5689976.0
16	15	4	52	206	1.0	-4754424.0	112968.0	-5689710.0
16	15	4	52	207	2.0	-4153694.0	113421.0	-5691121.0
16	15	4	52	237	3.0	-2169189.0	113438.0	-5691074.0
16	15	4	52	238	4.0	523145.0	113245.0	-5690519.0
16	15	4	52	238	5.0	3219097.0	114433.0	-5690319.0
16	15	4	52	239	6.0	4585209.0	113902.0	-5691570.0
16	15	4	52	239	7.0	4220776.0	113012.0	-5691691.0
16	15	4	52	239	8.0	3071864.0	112222.0	-5690811.0
16	15	4	52	240	9.0	1793854.0	110960.0	-5690350.0
16	15	4	52	240	10.0	811540.0	108853.0	-5691608.0
16	15	4	52	241	11.0	269351.0	106108.0	-5691539.0
16	15	4	52	241	12.0	3580.0	104039.0	-5690713.0
16	15	4	52	241	13.0	-58293.0	101221.0	-5690541.0
16	15	4	52	242	14.0	-6964.0	98393.0	-5691878.0
16	15	4	52	242	15.0	97373.0	95083.0	-5691623.0
16	15	4	52	243	16.0	209320.0	91631.0	-5690886.0
16	15	4	52	268	17.0	406142.0	88230.0	-5690526.0
16	15	4	52	286	19.0	671833.0	81709.0	-5691742.0
16	15	4	52	286	20.0	487984.0	76798.0	-5691007.0
16	15	4	52	286	21.0	132074.0	72503.0	-5690314.0
16	15	4	52	286	22.0	-136394.0	69443.0	-5691398.0
16	15	4	52	287	23.0	-145799.0	65968.0	-5691808.0
16	15	4	52	287	24.0	50195.0	62478.0	-5691141.0
16	15	4	52	287	25.0	291490.0	60610.0	-5690424.0
16	15	4	52	287	26.0	441329.0	57478.0	-5691334.0
16	15	4	52	288	27.0	429076.0	53549.0	-5691988.0
16	15	4	52	288	28.0	298628.0	49985.0	-5691308.0
16	15	4	52	288	29.0	154999.0	46498.0	-5690637.0
16	15	4	52	288	30.0	92497.0	42777.0	-5691757.0
16	15	4	52	289	31.0	159668.0	39283.0	-5692162.0
16	15	4	52	289	32.0	308421.0	35516.0	-5691478.0
16	15	4	52	289	41.0	84521.0	4508.0	-5690717.0
16	15	4	52	290	42.0	91569.0	414.0	-5690739.0
16	15	4	52	290	43.0	67742.0	-4547.0	-5692157.0
16	15	4	52	290	44.0	26673.0	-8022.0	-5691822.0
16	15	4	52	290	45.0	-26543.0	-11434.0	-5691014.0
16	15	4	52	291	46.0	-121391.0	-14027.0	-5691086.0
16	15	4	52	291	47.0	-209898.0	-16809.0	-5692399.0
16	15	4	52	312	48.0	-249509.0	-19492.0	-5691995.0
16	15	4	52	327	49.0	-245409.0	-21292.0	-5691212.0
16	15	4	52	328	50.0	-226626.0	-22228.0	-5691224.0
16	15	4	52	328	51.0	-209914.0	-24288.0	-5692341.0
16	15	4	52	328	52.0	-174009.0	-26847.0	-5691859.0
16	15	4	52	328	53.0	-120416.0	-29368.0	-5691123.0
16	15	4	52	329	54.0	-70059.0	-31859.0	-5690824.0
16	15	4	52	329	55.0	-45786.0	-33954.0	-5692193.0
16	15	4	52	329	56.0	-45498.0	-36275.0	-5691999.0
16	15	4	52	329	57.0	-77326.0	-39086.0	-5691289.0
16	15	4	52	330	58.0	-129917.0	-40849.0	-5690848.0
16	15	4	52	330	59.0	-189352.0	-42497.0	-5692072.0
16	15	4	52	330	60.0	-233898.0	-43684.0	-5691938.0
16	15	4	52	330	61.0	-265912.0	-44726.0	-5691221.0
16	15	4	52	331	62.0	-276217.0	-46834.0	-5690795.0
16	15	4	52	331	64.0	-199991.0	-49290.0	-5692017.0
16	15	4	52	331	65.0	-135884.0	-51889.0	-5691312.0
16	15	4	52	332	66.0	-68971.0	-53449.0	-5691030.0
16	15	4	52	332	67.0	-23833.0	-54265.0	-5692295.0
16	15	4	52	332	68.0	-2285.0	-54741.0	-5691914.0
16	15	4	52	333	69.0	4758.0	-55527.0	-5691211.0
16	15	4	52	358	70.0	-15708.0	-55995.0	-5690529.0
16	15	4	52	378	71.0	-41363.0	-55849.0	-5691598.0
16	15	4	52	378	72.0	-50220.0	-54449.0	-5691949.0
16	15	4	52	378	73.0	-35748.0	-54427.0	-5691266.0
16	15	4	52	379	74.0	14920.0	-54902.0	-5690751.0
16	15	4	52	379	75.0	39191.0	-54701.0	-5691727.0
16	15	4	52	380	76.0	56136.0	-53997.0	-5691615.0
16	15	4	52	380	77.0	62608.0	-53013.0	-5690926.0
16	15	4	52	380	78.0	78240.0	-52391.0	-5691090.0
16	15	4	52	380	79.0	107316.0	-52342.0	-5692161.0
16	15	4	52	381	80.0	128052.0	-51904.0	-5691487.0
16	15	4	52	381	81.0	137656.0	-51049.0	-5690817.0
16	15	4	52	381	82.0	122686.0	-50093.0	-5691147.0
16	15	4	52	382	83.0	128967.0	-49614.0	-5692497.0
16	15	4	52	382	84.0	134429.0	-48431.0	-5691877.0
16	15	4	52	382	86.0	195362.0	-46573.0	-5690621.0
16	15	4	52	383	87.0	238377.0	-46456.0	-5691918.0
16	15	4	52	383	88.0	247148.0	-46916.0	-5692082.0
16	15	4	52	383	89.0	300218.0	-46052.0	-5691369.0
16	15	4	52	384	90.0	312563.0	-45156.0	-5690981.0
16	15	4	52	384	91.0	278334.0	-44087.0	-5692279.0
16	15	4	52	403	92.0	258368.0	-42879.0	-5692121.0
16	15	4	52	403	93.0	185671.0	-41424.0	-5691343.0
16	15	4	52	420	94.0	185091.0	-38199.0	-5690914.0
16	15	4	52	420	95.0	94396.0	-36011.0	-5691987.0
16	15	4	52	421	96.0	85641.0	-34779.0	-5691821.0
16	15	4	52	421	97.0	-5087.0	-33949.0	-5691019.0
16	15	4	52	421	98.0	-38291.0	-32521.0	-5690693.0
16	15	4	52	421	99.0	-79409.0	-31209.0	-5691776.0
16	15	4	52	422	100.0	-107736.0	-30207.0	-5691582.0
16	15	4	52	422	101.0	-92281.0	-29175.0	-5690785.0
16	15	4	52	422	102.0	-154708.0	-27651.0	-5690372.0
16	15	4	52	422	103.0	-154083.0	-26434.0	-5691526.0
16	15	4	52	423	104.0	-237291.0	-25859.0	-5691554.0
16	15	4	52	423	105.0	-205223.0	-25576.0	-5690721.0
16	15	4	52	423	106.0	-270831.0	-24420.0	-5690414.0
16	15	4	52	423	109.0	-278156.0	-22129.0	-5690990.0
16	15	4	52	424	110.0	-192993.0	-23481.0	-5690584.0
16	15	4	52	424	111.0	-168317.0	-23536.0	-5691677.0
16	15	4	52	424	112.0	-47932.0	-23211.0	-5691746.0
16	15	4	52	424	113.0	-18432.0	-22584.0	-5690914.0
16	15	4	52	425	114.0	102956.0	-22094.0	-5690279.0
16	15	4	52	449	115.0	127814.0	-22184.0	-5690925.0
16	15	4	52	460	116.0	159124.0	-21661.0	-5691833.0
16	15	4	52	461	117.0	155663.0	-18983.0	-5691084.0
16	15	4	52	461	118.0	90302.0	-18319.0	-5690403.0
16	15	4	52	461	119.0	98424.0	-18364.0	-5691038.0
16	15	4	52	462	120.0	9489.0	-18395.0	-5691868.0
16	15	4	52	462	121.0	29944.0	-18013.0	-5691181.0
16	15	4	52	462	122.0	-32135.0	-17866.0	-5690561.0
16	15	4	52	462	123.0	-9661.0	-18288.0	-5691366.0
16	15	4	52	463	124.0	4643.0	-18425.0	-5692084.0
16	15	4	52	463	125.0	9077.0	-17400.0	-5691340.0
16	15	4	52	463	126.0	75048.0	-17302.0	-5690668.0
16	15	4	52	463	127.0	60221.0	-17397.0	-5691127.0
16	15	4	52	464	128.0	103979.0	-17301.0	-5691970.0
16	15	4	52	464	129.0	132705.0	-17372.0	-5691279.0
16	15	4	52	464	131.0	209924.0	-17669.0	-5690546.0
16	15	4	52	464	132.0	207376.0	-18908.0	-5691800.0
16	15	4	52	465	133.0	223673.0	-20400.0	-5691353.0
16	15	4	52	465	134.0	228129.0	-20957.0	-5690552.0
16	15	4	52	465	135.0	220250.0	-21454.0	-5690372.0
16	15	4	52	466	136.0	207431.0	-21636.0	-5691642.0
16	15	4	52	492	137.0	177527.0	-21800.0	-5691370.0
16	15	4	52	513	138.0	132481.0	-21816.0	-5690586.0
16	15	4	52	513	139.0	125531.0	-20237.0	-5690861.0
16	15	4	52	514	140.0	128576.0	-19088.0	-5692169.0
16	15	4	52	514	141.0	119145.0	-19501.0	-5691706.0
16	15	4	52	514	142.0	108361.0	-19440.0	-5690891.0
16	15	4	52	515	143.0	82758.0	-18788.0	-5690701.0
16	15	4	52	515	144.0	57471.0	-18495.0	-5691839.0
16	15	4	52	516	145.0	6447.0	-18984.0	-5691593.0
16	15	4	52	516	146.0	-50486.0	-19304.0	-5690769.0
16	15	4	52	516	147.0	-88359.0	-19521.0	-5690317.0
16	15	4	52	517	148.0	-117726.0	-19923.0	-5691366.0
16	15	4	52	517	149.0	-141501.0	-19975.0	-5691399.0
16	15	4	52	518	150.0	-155837.0	-19897.0	-5690557.0
16	15	4	52	518	151.0	-164697.0	-19359.0	-5690006.0
16	15	4	52	518	153.0	-207404.0	-19749.0	-5691537.0
16	15	4	52	519	154.0	-230741.0	-20327.0	-5690762.0
16	15	4	52	519	155.0	-259147.0	-22216.0	-5690327.0
16	15	4	52	520	156.0	-295325.0	-22957.0	-5691594.0
16	15	4	52	520	157.0	-319064.0	-23292.0	-5691862.0
16	15	4	52	520	158.0	-335148.0	-23166.0	-5691059.0
16	15	4	52	521	159.0	-347429.0	-22778.0	-5690433.0
16	15	4	52	539	160.0	-351717.0	-22918.0	-5691358.0
16	15	4	52	540	161.0	-344829.0	-22497.0	-5692217.0
16	15	4	52	583	162.0	-303649.0	-20021.0	-5691459.0
16	15	4	52	584	163.0	-234037.0	-19841.0	-5690737.0
16	15	4	52	584	164.0	-135661.0	-19909.0	-5690981.0
16	15	4	52	597	165.0	-49612.0	-19384.0	-5692068.0
16	15	4	52	597	166.0	4649.0	-19021.0	-5691488.0
16	15	4	52	598	167.0	49687.0	-18704.0	-5690740.0
16	15	4	52	598	168.0	97834.0	-17964.0	-5691040.0
16	15	4	52	599	169.0	144825.0	-17889.0	-5692214.0
16	15	4	52	599	170.0	172031.0	-17388.0	-5691672.0
16	15	4	52	600	171.0	185628.0	-16956.0	-5690982.0
16	15	4	52	600	172.0	186912.0	-17357.0	-5691529.0
16	15	4	52	601	173.0	195264.0	-16699.0	-5692406.0
16	15	4	52	602	174.0	197365.0	-16641.0	-5691735.0
16	15	4	52	602	176.0	164186.0	-16524.0	-5691341.0
16	15	4	52	603	177.0	107612.0	-17267.0	-5692498.0
16	15	4	52	603	198.0	957536.0	-8054.0	-5691889.0
16	15	4	52	604	199.0	677833.0	-8305.0	-5691056.0
16	15	4	52	604	200.0	247125.0	-10287.0	-5690432.0
16	15	4	52	605	201.0	-154615.0	-9997.0	-5691559.0
16	15	4	52	605	202.0	-430996.0	-9350.0	-5692065.0
16	15	4	52	626	203.0	-285584.0	-9016.0	-5691326.0
16	15	4	52	627	204.0	190327.0	-8424.0	-5690777.0
16	15	4	52	646	205.0	914501.0	-7984.0	-5691912.0
16	15	4	52	646	206.0	1536163.0	-7343.0	-5692421.0
16	15	4	52	646	207.0	1937963.0	-4422.0	-5691708.0
16	15	4	52	647	208.0	2098776.0	-3842.0	-5691015.0
16	15	4	52	647	209.0	1962594.0	-3607.0	-5691770.0
16	15	4	52	647	210.0	1505278.0	-3534.0	-5692332.0
16	15	4	52	647	211.0	782234.0	-2868.0	-5691565.0
16	15	4	52	648	212.0	-270601.0	-3032.0	-5690679.0
16	15	4	52	648	213.0	-1327169.0	-2987.0	-5690801.0
16	15	4	52	648	214.0	-1896567.0	-2309.0	-5691888.0
16	15	4	52	648	215.0	-2102991.0	-2587.0	-5691410.0
16	15	4	52	649	216.0	-1819388.0	-2210.0	-5690604.0
16	15	4	52	649	217.0	-1426311.0	-1511.0	-5690804.0
16	15	4	52	649	218.0	-1193846.0	-1020.0	-5691858.0
16	15	4	52	650	219.0	-1134967.0	-972.0	-5691429.0
16	15	4	52	650	221.0	-757507.0	-904.0	-5691513.0
16	15	4	52	650	222.0	-634237.0	-2205.0	-5692327.0
16	15	4	52	650	223.0	-462596.0	-2604.0	-5691721.0
16	15	4	52	651	224.0	-344921.0	-2061.0	-5690907.0
16	15	4	52	651	225.0	-320164.0	-1638.0	-5691166.0
16	15	4	52	651	226.0	-447279.0	-1742.0	-5692381.0
16	15	4	52	678	227.0	-513316.0	-1214.0	-5691903.0
16	15	4	52	696	228.0	-444831.0	-90.0	-5691111.0
16	15	4	52	696	229.0	-283503.0	1679.0	-5690883.0
16	15	4	52	697	230.0	15777.0	2596.0	-5692271.0
16	15	4	52	697	231.0	281976.0	2958.0	-5692149.0
16	15	4	52	697	232.0	555038.0	3105.0	-5691384.0
16	15	4	52	698	233.0	706494.0	3718.0	-5690937.0
16	15	4	52	698	234.0	723648.0	4231.0	-5692073.0
16	15	4	52	699	235.0	687636.0	3905.0	-5692086.0
16	15	4	52	699	236.0	588885.0	4209.0	-5691288.0
16	15	4	52	699	237.0	441671.0	4451.0	-5691191.0
16	15	4	52	700	238.0	271637.0	4959.0	-5692390.0
16	15	4	52	700	239.0	98709.0	5498.0	-5691999.0
16	15	4	52	700	240.0	-63736.0	5889.0	-5691191.0
16	15	4	52	701	241.0	-186821.0	5591.0	-5691117.0
16	15	4	52	701	243.0	-324817.0	6089.0	-5692092.0
16	15	4	52	701	244.0	-373517.0	5721.0	-5691331.0
16	15	4	52	702	245.0	-416413.0	3672.0	-5690770.0
16	15	4	52	702	246.0	-464341.0	3893.0	-5691926.0
16	15	4	52	703	247.0	-512153.0	4244.0	-5691986.0
16	15	4	52	703	248.0	-545629.0	4557.0	-5691251.0
16	15	4	52	703	249.0	-553841.0	4677.0	-5690632.0
16	15	4	52	718	250.0	-543610.0	5269.0	-5691889.0
16	15	4	52	719	251.0	-539177.0	6023.0	-5692225.0
16	15	4	52	738	252.0	-517447.0	7144.0	-5691509.0
16	15	4	52	738	253.0	-436707.0	7789.0	-5691017.0
16	15	4	52	738	254.0	-327065.0	8147.0	-5692307.0
16	15	4	52	739	255.0	-229058.0	8273.0	-5692305.0
16	15	4	52	739	0.0	-197577.0	8104.0	-5691579.0
16	15	4	52	739	1.0	-211238.0	8257.0	-5690967.0
16	15	4	52	739	2.0	-228773.0	9218.0	-5692156.0
16	15	4	52	740	3.0	-224936.0	9344.0	-5692394.0
16	15	4	52	740	4.0	-216038.0	8791.0	-5691712.0
16	15	4	52	740	5.0	-207733.0	8713.0	-5690940.0
16	15	4	52	741	6.0	-185967.0	8804.0	-5691515.0
16	15	4	52	741	7.0	-163581.0	9142.0	-5692097.0
16	15	4	52	741	8.0	-136778.0	9275.0	-5691455.0
16	15	4	52	741	10.0	-71879.0	9748.0	-5691471.0
16	15	4	52	742	11.0	-63196.0	8481.0	-5692346.0
16	15	4	52	742	12.0	-62823.0	7831.0	-5691729.0
16	15	4	52	742	13.0	-41610.0	7786.0	-5690924.0
16	15	4	52	742	14.0	-7764.0	7645.0	-5691543.0
16	15	4	52	743	15.0	17734.0	7444.0	-5692158.0
16	15	4	52	763	16.0	21573.0	7431.0	-5691522.0
16	15	4	52	778	17.0	3137.0	7894.0	-5690797.0
16	15	4	52	778	18.0	-10509.0	10113.0	-5691561.0
16	15	4	52	779	19.0	29889.0	11030.0	-5692071.0
16	15	4	52	779	20.0	137683.0	11848.0	-5691384.0
16	15	4	52	779	21.0	254994.0	12714.0	-5690606.0
16	15	4	52	779	22.0	365118.0	13374.0	-5691110.0
16	15	4	52	780	23.0	450582.0	13686.0	-5691936.0
16	15	4	52	780	24.0	498671.0	14424.0	-5691288.0
16	15	4	52	780	25.0	479768.0	15392.0	-5690561.0
16	15	4	52	781	26.0	394297.0	16168.0	-5691012.0
16	15	4	52	781	27.0	287646.0	17359.0	-5691832.0
16	15	4	52	781	28.0	211185.0	18627.0	-5691189.0
16	15	4	52	782	29.0	184302.0	19907.0	-5690449.0
16	15	4	52	782	30.0	162309.0	21172.0	-5690685.0
16	15	4	52	782	32.0	61009.0	25173.0	-5690299.0
16	15	4	52	782	33.0	-22479.0	26746.0	-5690329.0
16	15	4	52	783	34.0	-98745.0	27728.0	-5691312.0
16	15	4	52	783	35.0	-142281.0	30141.0	-5690717.0
16	15	4	52	783	36.0	-171512.0	32616.0	-5689931.0
16	15	4	52	784	37.0	-210914.0	35804.0	-5689712.0
16	15	4	52	784	38.0	-233316.0	38863.0	-5690936.0
16	15	4	52	809	39.0	-237916.0	41826.0	-5690630.0
16	15	4	52	828	40.0	-223692.0	45459.0	-5689824.0
16	15	4	52	829	41.0	-160399.0	50763.0	-5689580.0
16	15	4	52	829	42.0	-86614.0	54917.0	-5690930.0
16	15	4	52	829	43.0	-48336.0	59103.0	-5690786.0
16	15	4	52	830	44.0	-39453.0	62178.0	-5689988.0
16	15	4	52	830	45.0	-42124.0	65299.0	-5689837.0
16	15	4	52	830	46.0	-26599.0	68042.0	-5691180.0
16	15	4	52	831	47.0	13373.0	70545.0	-5690919.0
16	15	4	52	831	48.0	75867.0	73384.0	-5690119.0
16	15	4	52	832	49.0	152583.0	76485.0	-5690087.0
16	15	4	52	832	50.0	219605.0	79038.0	-5691328.0
16	15	4	52	833	51.0	278425.0	81672.0	-5690947.0
16	15	4	52	833	52.0	312762.0	84881.0	-5690106.0
16	15	4	52	833	53.0	296674.0	87681.0	-5689634.0
16	15	4	52	834	55.0	183104.0	91742.0	-5690932.0
16	15	4	52	834	56.0	73703.0	92188.0	-5690111.0
16	15	4	52	835	57.0	-97415.0	93829.0	-5689647.0
16	15	4	52	835	58.0	-322159.0	95729.0	-5690777.0
16	15	4	52	835	59.0	-650910.0	97304.0	-5690971.0
16	15	4	52	836	60.0	-1160086.0	98863.0	-5690097.0
16	15	4	52	899	61.0	-2175495.0	99982.0	-5689517.0
16	15	4	52	899	62.0	-3953104.0	101290.0	-5690373.0
16	15	4	52	900	63.0	-4546189.0	105131.0	-5690484.0
16	15	4	52	901	64.0	-3345654.0	106090.0	-5689783.0
16	15	4	52	901	65.0	-1277327.0	105869.0	-5689556.0
16	15	4	52	902	66.0	1425325.0	106121.0	-5691067.0
16	15	4	52	902	67.0	3777438.0	106144.0	-5691514.0
16	15	4	52	903	68.0	4373103.0	105653.0	-5690796.0
16	15	4	52	904	69.0	3423272.0	105658.0	-5690116.0
16	15	4	52	904	70.0	1984195.0	105039.0	-5690922.0
16	15	4	52	915	71.0	573639.0	103488.0	-5691406.0
16	15	4	52	915	72.0	-437999.0	101930.0	-5690591.0
16	15	4	52	916	73.0	-957038.0	99703.0	-5689892.0
16	15	4	52	916	74.0	-1094855.0	97158.0	-5690731.0
16	15	4	52	917	75.0	-961734.0	94520.0	-5691270.0
16	15	4	52	917	100.0	334270.0	14899.0	-5691341.0
16	15	4	52	918	101.0	261423.0	9892.0	-5690540.0
16	15	4	52	918	102.0	182548.0	6573.0	-5690502.0
16	15	4	52	919	103.0	118430.0	3279.0	-5691787.0
16	15	4	52	919	104.0	100041.0	292.0	-5691428.0
16	15	4	52	920	105.0	121265.0	-2780.0	-5690638.0
16	15	4	52	943	106.0	184461.0	-5818.0	-5690468.0
16	15	4	52	987	107.0	268052.0	-8418.0	-5691785.0
16	15	4	53	34	108.0	342532.0	-9456.0	-5691532.0
16	15	4	53	35	109.0	379714.0	-12266.0	-5690779.0
16	15	4	53	36	110.0	376329.0	-15156.0	-5690967.0
16	15	4	53	36	111.0	329666.0	-17447.0	-5692179.0
16	15	4	53	37	112.0	272964.0	-20003.0	-5691677.0
16	15	4	53	38	113.0	233680.0	-22048.0	-5690936.0
16	15	4	53	38	114.0	199651.0	-24079.0	-5690614.0
16	15	4	53	39	115.0	152249.0	-26836.0	-5691869.0
16	15	4	53	40	116.0	95575.0	-28842.0	-5691602.0
16	15	4	53	40	117.0	45389.0	-30915.0	-5690846.0
16	15	4	53	41	118.0	2974.0	-33484.0	-5690355.0
16	15	4	53	42	119.0	-49567.0	-36082.0	-5691623.0
16	15	4	53	79	120.0	-117354.0	-38407.0	-5691608.0
16	15	4	53	80	122.0	-261003.0	-42074.0	-5690435.0
16	15	4	53	98	145.0	-127683.0	-47859.0	-5690176.0
16	15	4	53	99	167.0	65078.0	-22895.0	-5691444.0
16	15	4	53	100	168.0	220398.0	-23069.0	-5691321.0
16	15	4	53	100	169.0	312596.0	-23540.0	-5690570.0
16	15	4	53	101	170.0	276874.0	-22882.0	-5690251.0
16	15	4	53	101	171.0	182654.0	-22264.0	-5691607.0
16	15	4	53	102	172.0	101549.0	-19916.0	-5691577.0
16	15	4	53	102	173.0	138256.0	-17611.0	-5690816.0
16	15	4	53	103	174.0	153549.0	-16807.0	-5690479.0
16	15	4	53	103	175.0	102340.0	-16174.0	-5691680.0
16	15	4	53	104	176.0	34044.0	-15696.0	-5691586.0
16	15	4	53	104	177.0	-32301.0	-15674.0	-5690779.0
16	15	4	53	105	178.0	-113104.0	-15467.0	-5690594.0
16	15	4	53	105	190.0	582624.0	-13636.0	-5690484.0
16	15	4	53	106	191.0	534406.0	-15652.0	-5691689.0
16	15	4	53	106	192.0	453489.0	-16229.0	-5691944.0
16	15	4	53	107	193.0	372238.0	-16465.0	-5691122.0
16	15	4	53	107	194.0	288794.0	-16730.0	-5690504.0
16	15	4	53	108	195.0	181186.0	-16972.0	-5691383.0
16	15	4	53	125	196.0	190527.0	-17419.0	-5692033.0
16	15	4	53	126	197.0	271388.0	-16776.0	-5691274.0
16	15	4	53	159	198.0	264674.0	-14922.0	-5690632.0
16	15	4	53	159	199.0	213126.0	-15234.0	-5691537.0
16	15	4	53	160	200.0	107636.0	-15079.0	-5692368.0
16	15	4	53	160	201.0	39786.0	-14908.0	-5691608.0
16	15	4	53	160	202.0	85470.0	-15154.0	-5690951.0
16	15	4	53	161	203.0	55840.0	-15379.0	-5691946.0
16	15	4	53	161	204.0	-37835.0	-15207.0	-5692809.0
16	15	4	53	161	205.0	-158107.0	-15171.0	-5692038.0
16	15	4	53	162	206.0	-235775.0	-15977.0	-5691319.0
16	15	4	53	162	207.0	-194901.0	-16017.0	-5691856.0
16	15	4	53	162	208.0	-163977.0	-16052.0	-5692754.0
16	15	4	53	163	209.0	-172533.0	-15969.0	-5692079.0
16	15	4	53	163	210.0	-182607.0	-16261.0	-5691311.0
16	15	4	53	163	212.0	-222192.0	-15954.0	-5692507.0
16	15	4	53	163	213.0	-241530.0	-17186.0	-5692019.0
16	15	4	53	164	214.0	-215509.0	-18928.0	-5691240.0
16	15	4	53	164	215.0	-211399.0	-19389.0	-5691085.0
16	15	4	53	164	216.0	-256592.0	-19585.0	-5692380.0
16	15	4	53	165	217.0	-315037.0	-19476.0	-5692100.0
16	15	4	53	193	218.0	-367541.0	-19562.0	-5691266.0
16	15	4	53	193	219.0	-386608.0	-19406.0	-5691572.0
16	15	4	53	194	220.0	-356120.0	-17846.0	-5692858.0
16	15	4	53	194	221.0	-290564.0	-16916.0	-5692426.0
16	15	4	53	194	222.0	-221664.0	-17006.0	-5691606.0
16	15	4	53	195	223.0	-157540.0	-16776.0	-5691541.0
16	15	4	53	195	224.0	-115330.0	-16294.0	-5692634.0
16	15	4	53	195	225.0	-99419.0	-16432.0	-5692301.0
16	15	4	53	196	226.0	-83677.0	-16182.0	-5691459.0
16	15	4	53	196	227.0	-69580.0	-16347.0	-5691191.0
16	15	4	53	196	228.0	-50376.0	-16132.0	-5692369.0
16	15	4	53	196	229.0	-31621.0	-16206.0	-5692208.0
16	15	4	53	197	230.0	3100.0	-15729.0	-5691393.0
16	15	4	53	197	231.0	53882.0	-15377.0	-5691261.0
16	15	4	53	197	232.0	115451.0	-15022.0	-5692546.0
16	15	4	53	198	234.0	214302.0	-15206.0	-5691482.0
16	15	4	53	198	235.0	268693.0	-15458.0	-5691452.0
16	15	4	53	198	236.0	349368.0	-17613.0	-5692687.0
16	15	4	53	198	237.0	416883.0	-17319.0	-5692358.0
16	15	4	53	199	238.0	420042.0	-17291.0	-5691557.0
16	15	4	53	199	239.0	317395.0	-16787.0	-5691279.0
16	15	4	53	199	240.0	121262.0	-16352.0	-5692540.0
16	15	4	53	227	241.0	-119229.0	-15782.0	-5692337.0
16	15	4	53	228	242.0	-341908.0	-15113.0	-5691544.0
16	15	4	53	228	243.0	-480997.0	-13204.0	-5690964.0
16	15	4	53	229	244.0	-490764.0	-12744.0	-5692194.0
16	15	4	53	229	245.0	-354056.0	-11948.0	-5692371.0
16	15	4	53	229	246.0	-94834.0	-11609.0	-5691648.0
16	15	4	53	230	247.0	260696.0	-11401.0	-5691095.0
16	15	4	53	230	248.0	679679.0	-10967.0	-5692314.0
16	15	4	53	230	249.0	1069453.0	-10459.0	-5692598.0
16	15	4	53	230	250.0	1350255.0	-9572.0	-5691909.0
16	15	4	53	231	251.0	1435491.0	-8714.0	-5691251.0
16	15	4	53	231	252.0	1245330.0	-9219.0	-5692200.0
16	15	4	53	231	253.0	868812.0	-9197.0	-5692684.0
16	15	4	53	232	254.0	372973.0	-9014.0	-5691949.0
16	15	4	53	232	255.0	-176729.0	-9129.0	-5691236.0
16	15	4	53	232	1.0	-842267.0	-8380.0	-5692631.0
16	15	4	53	233	2.0	-782820.0	-9917.0	-5691937.0
16	15	4	53	233	3.0	-430716.0	-11076.0	-5691132.0
16	15	4	53	233	4.0	18713.0	-10806.0	-5691744.0
16	15	4	53	234	5.0	506201.0	-10289.0	-5692871.0
16	15	4	53	234	6.0	962573.0	-9909.0	-5692357.0
16	15	4	53	265	7.0	1309688.0	-9532.0	-5691578.0
16	15	4	53	265	8.0	1605673.0	-9067.0	-5691734.0
16	15	4	53	266	9.0	1464368.0	-6726.0	-5692989.0
16	15	4	53	266	10.0	938401.0	-5929.0	-5692547.0
16	15	4	53	266	11.0	292978.0	-4957.0	-5691694.0
16	15	4	53	267	12.0	-557994.0	-4700.0	-5691970.0
16	15	4	53	267	13.0	-1207234.0	-4626.0	-5693016.0
16	15	4	53	267	14.0	-1324374.0	-4065.0	-5692486.0
16	15	4	53	268	15.0	-1161408.0	-3802.0	-5691661.0
16	15	4	53	268	16.0	-955205.0	-3481.0	-5691940.0
16	15	4	53	268	17.0	-693995.0	-2870.0	-5692926.0
16	15	4	53	269	18.0	-494684.0	-3276.0	-5692419.0
16	15	4	53	269	19.0	-432187.0	-3067.0	-5691591.0
16	15	4	53	302	20.0	-563956.0	-2792.0	-5691494.0
16	15	4	53	303	21.0	-868964.0	-2086.0	-5692716.0
16	15	4	53	303	23.0	-1164066.0	-1934.0	-5691518.0
16	15	4	53	303	24.0	-1066167.0	-2004.0	-5691134.0
16	15	4	53	304	25.0	-1025917.0	-3264.0	-5692439.0
16	15	4	53	304	26.0	-986973.0	-3464.0	-5692331.0
16	15	4	53	304	27.0	-857062.0	-3272.0	-5691612.0
16	15	4	53	304	28.0	-656405.0	-2812.0	-5691447.0
16	15	4	53	305	29.0	-466260.0	-2728.0	-5692899.0
16	15	4	53	305	30.0	-274735.0	-2313.0	-5692635.0
16	15	4	53	305	31.0	-61900.0	-1309.0	-5691919.0
16	15	4	53	305	32.0	131425.0	783.0	-5691744.0
16	15	4	53	306	33.0	257369.0	2085.0	-5693240.0
16	15	4	53	306	34.0	274065.0	2366.0	-5692941.0
16	15	4	53	306	35.0	243856.0	2106.0	-5692200.0
16	15	4	53	307	36.0	244898.0	2568.0	-5691490.0
16	15	4	53	341	37.0	275467.0	3041.0	-5692508.0
16	15	4	53	342	38.0	278974.0	3521.0	-5692809.0
16	15	4	53	342	39.0	241423.0	4321.0	-5692105.0
16	15	4	53	342	40.0	193658.0	4424.0	-5691561.0
16	15	4	53	343	41.0	144427.0	4672.0	-5692775.0
16	15	4	53	343	42.0	89279.0	4714.0	-5692706.0
16	15	4	53	343	43.0	31847.0	4825.0	-5691979.0
16	15	4	53	344	44.0	-32256.0	5134.0	-5691370.0
16	15	4	53	344	46.0	-118756.0	5695.0	-5691946.0
16	15	4	53	344	47.0	-141871.0	4518.0	-5691291.0
16	15	4	53	344	48.0	-169395.0	3687.0	-5691817.0
16	15	4	53	345	49.0	-230703.0	3611.0	-5692574.0
16	15	4	53	345	50.0	-293071.0	3172.0	-5691807.0
16	15	4	53	345	51.0	-341672.0	3124.0	-5691103.0
16	15	4	53	378	52.0	-372257.0	3408.0	-5691502.0
16	15	4	53	378	53.0	-351662.0	4004.0	-5692686.0
16	15	4	53	379	54.0	-271682.0	5747.0	-5692039.0
16	15	4	53	379	55.0	-193154.0	6864.0	-5691331.0
16	15	4	53	379	56.0	-152571.0	7085.0	-5691456.0
16	15	4	53	380	57.0	-121922.0	6434.0	-5692676.0
16	15	4	53	380	58.0	-80540.0	6512.0	-5692119.0
16	15	4	53	380	59.0	-49574.0	6833.0	-5691471.0
16	15	4	53	381	60.0	-51536.0	7328.0	-5691992.0
16	15	4	53	381	61.0	-92666.0	7120.0	-5692694.0
16	15	4	53	381	62.0	-169261.0	7008.0	-5691954.0
16	15	4	53	382	63.0	-231012.0	7623.0	-5691238.0
16	15	4	53	382	64.0	-245671.0	8191.0	-5691533.0
16	15	4	53	382	65.0	-212019.0	7989.0	-5692462.0
16	15	4	53	382	66.0	-152770.0	8292.0	-5691842.0
16	15	4	53	383	68.0	-54708.0	8173.0	-5691116.0
16	15	4	53	415	69.0	-65786.0	7988.0	-5692424.0
16	15	4	53	416	70.0	-117851.0	6493.0	-5691989.0
16	15	4	53	416	71.0	-147930.0	6478.0	-5691194.0
16	15	4	53	417	72.0	-143092.0	6674.0	-5691004.0
16	15	4	53	417	73.0	-126233.0	6520.0	-5692236.0
16	15	4	53	417	74.0	-94027.0	6784.0	-5691955.0
16	15	4	53	417	75.0	-42693.0	9063.0	-5691162.0
16	15	4	53	418	76.0	-6581.0	9729.0	-5691259.0
16	15	4	53	418	77.0	-9681.0	10051.0	-5692549.0
16	15	4	53	418	78.0	-32366.0	10659.0	-5692173.0
16	15	4	53	419	79.0	-34186.0	11213.0	-5691354.0
16	15	4	53	419	80.0	3698.0	11782.0	-5691216.0
16	15	4	53	419	81.0	55251.0	12314.0	-5692514.0
16	15	4	53	419	82.0	93618.0	12570.0	-5692258.0
16	15	4	53	420	83.0	127896.0	13499.0	-5691394.0
16	15	4	53	420	91.0	188975.0	24859.0	-5691731.0
16	15	4	53	420	92.0	169731.0	25617.0	-5691252.0
16	15	4	53	421	93.0	114819.0	27221.0	-5692281.0
16	15	4	53	421	94.0	23335.0	30006.0	-5692436.0
16	15	4	53	421	95.0	-48324.0	32639.0	-5691614.0
16	15	4	53	422	96.0	-37884.0	35742.0	-5691076.0
16	15	4	53	455	97.0	28359.0	38484.0	-5692057.0
16	15	4	53	455	98.0	88861.0	41822.0	-5692296.0
16	15	4	53	455	99.0	88072.0	46682.0	-5691496.0
16	15	4	53	456	100.0	10502.0	49894.0	-5690812.0
16	15	4	53	456	101.0	-84154.0	53221.0	-5691591.0
16	15	4	53	456	102.0	-149694.0	55646.0	-5692226.0
16	15	4	53	457	103.0	-169000.0	58074.0	-5691524.0
16	15	4	53	457	104.0	-156799.0	60821.0	-5690827.0
16	15	4	53	457	105.0	-132298.0	63498.0	-5691759.0
16	15	4	53	457	106.0	-107512.0	65969.0	-5692503.0
16	15	4	53	458	107.0	-58789.0	68776.0	-5691815.0
16	15	4	53	458	108.0	34591.0	71164.0	-5691098.0
16	15	4	53	458	109.0	128155.0	73587.0	-5692045.0
16	15	4	53	459	110.0	171480.0	76072.0	-5692781.0
16	15	4	53	459	111.0	128014.0	77696.0	-5692104.0
16	15	4	53	459	113.0	-409582.0	82008.0	-5692084.0
16	15	4	53	460	114.0	-990706.0	82443.0	-5692584.0
16	15	4	53	460	115.0	-1929701.0	82116.0	-5691796.0
16	15	4	53	460	116.0	-3812416.0	83228.0	-5690754.0
16	15	4	53	460	117.0	-5182057.0	83881.0	-5690631.0
16	15	4	53	461	118.0	-4482386.0	84855.0	-5692086.0
16	15	4	53	461	119.0	-2003592.0	86164.0	-5692047.0
16	15	4	53	493	120.0	1169231.0	86904.0	-5691536.0
16	15	4	53	494	121.0	3911463.0	88139.0	-5691593.0
16	15	4	53	494	122.0	4933191.0	89993.0	-5693011.0
16	15	4	53	495	123.0	4372088.0	90747.0	-5692871.0
16	15	4	53	495	124.0	3259471.0	91109.0	-5691963.0
16	15	4	53	495	125.0	1977316.0	91145.0	-5691875.0
16	15	4	53	496	126.0	917749.0	90699.0	-5692788.0
16	15	4	53	496	127.0	218785.0	89751.0	-5692290.0
16	15	4	53	496	128.0	-217464.0	88258.0	-5691422.0
16	15	4	53	497	129.0	-278891.0	87442.0	-5691721.0
16	15	4	53	497	130.0	-50227.0	86204.0	-5692731.0
16	15	4	53	497	131.0	230127.0	84878.0	-5692187.0
16	15	4	53	498	132.0	428381.0	82996.0	-5691446.0
16	15	4	53	498	133.0	546984.0	81392.0	-5691586.0
16	15	4	53	498	134.0	639416.0	79944.0	-5693009.0
16	15	4	53	499	136.0	525524.0	75183.0	-5691839.0
16	15	4	53	499	137.0	339271.0	71349.0	-5691380.0
16	15	4	53	499	138.0	166793.0	68164.0	-5692673.0
16	15	4	53	500	139.0	50940.0	65673.0	-5692740.0
16	15	4	53	500	140.0	-71134.0	62673.0	-5691952.0
16	15	4	53	500	141.0	-186599.0	59478.0	-5691634.0
16	15	4	53	533	142.0	-300856.0	56750.0	-5692866.0
16	15	4	53	534	143.0	-369116.0	54322.0	-5692662.0
16	15	4	53	534	144.0	-225569.0	52753.0	-5691936.0
16	15	4	53	535	145.0	97013.0	50731.0	-5691692.0
16	15	4	53	535	146.0	407576.0	48226.0	-5693213.0
16	15	4	53	535	147.0	593133.0	45608.0	-5693011.0
16	15	4	53	535	148.0	647151.0	42474.0	-5692267.0
16	15	4	53	536	149.0	621426.0	39441.0	-5691572.0
16	15	4	53	536	150.0	572148.0	36217.0	-5692619.0
16	15	4	53	536	151.0	526502.0	33289.0	-5692980.0
16	15	4	53	536	152.0	460702.0	30029.0	-5692289.0
16	15	4	53	537	153.0	399574.0	26988.0	-5691508.0
16	15	4	53	537	154.0	337469.0	24154.0	-5692151.0
16	15	4	53	537	155.0	272941.0	20486.0	-5692822.0
16	15	4	53	538	156.0	223158.0	17574.0	-5692182.0
16	15	4	53	538	158.0	195704.0	11868.0	-5692641.0
16	15	4	53	574	159.0	240382.0	7918.0	-5693059.0
16	15	4	53	575	160.0	275203.0	3099.0	-5692397.0
16	15	4	53	575	161.0	281956.0	-327.0	-5691650.0
16	15	4	53	575	162.0	257306.0	-2940.0	-5692634.0
16	15	4	53	575	163.0	201445.0	-5659.0	-5693355.0
16	15	4	53	576	164.0	123665.0	-8887.0	-5692667.0
16	15	4	53	576	165.0	34839.0	-12004.0	-5691875.0
16	15	4	53	576	166.0	-38414.0	-13748.0	-5692313.0
16	15	4	53	577	167.0	-93254.0	-14227.0	-5693289.0
16	15	4	53	577	168.0	-157005.0	-16507.0	-5692723.0
16	15	4	53	577	169.0	-217164.0	-18522.0	-5691935.0
16	15	4	53	578	170.0	-264802.0	-20408.0	-5692152.0
16	15	4	53	629	171.0	-302944.0	-22894.0	-5693403.0
16	15	4	53	630	172.0	-331284.0	-25202.0	-5692935.0
16	15	4	53	630	173.0	-347527.0	-26856.0	-5692165.0
16	15	4	53	630	174.0	-341975.0	-28531.0	-5692291.0
16	15	4	53	630	175.0	-296608.0	-29951.0	-5693372.0
16	15	4	53	631	176.0	-211704.0	-31299.0	-5692857.0
16	15	4	53	631	177.0	-132015.0	-33097.0	-5692128.0
16	15	4	53	631	178.0	-96052.0	-34690.0	-5692570.0
16	15	4	53	631	179.0	-67115.0	-36932.0	-5693367.0
16	15	4	53	632	181.0	20704.0	-39654.0	-5691973.0
16	15	4	53	632	182.0	84879.0	-42632.0	-5691982.0
16	15	4	53	632	183.0	151316.0	-44154.0	-5692681.0
16	15	4	53	633	184.0	190608.0	-44791.0	-5692079.0
16	15	4	53	633	185.0	197656.0	-45964.0	-5691425.0
16	15	4	53	633	186.0	173759.0	-46782.0	-5692219.0
16	15	4	53	633	187.0	106586.0	-47121.0	-5692655.0
16	15	4	53	633	188.0	22171.0	-46689.0	-5691904.0
16	15	4	53	634	189.0	-58091.0	-45122.0	-5691348.0
16	15	4	53	634	190.0	-98383.0	-44906.0	-5692314.0
16	15	4	53	634	191.0	-115467.0	-44810.0	-5692344.0
16	15	4	53	635	192.0	-101451.0	-44808.0	-5691570.0
16	15	4	53	635	193.0	-72720.0	-45128.0	-5691082.0
16	15	4	53	635	194.0	-52202.0	-44914.0	-5692307.0
16	15	4	53	635	195.0	-43966.0	-44586.0	-5692477.0
16	15	4	53	635	196.0	-70354.0	-44597.0	-5691632.0
16	15	4	53	636	197.0	-118117.0	-43736.0	-5691021.0
16	15	4	53	636	198.0	-149627.0	-42964.0	-5691898.0
16	15	4	53	636	199.0	-122154.0	-41791.0	-5692509.0
16	15	4	53	636	200.0	-48204.0	-41354.0	-5691732.0
16	15	4	53	637	201.0	27838.0	-40164.0	-5691120.0
16	15	4	53	637	203.0	115233.0	-38683.0	-5692589.0
16	15	4	53	637	204.0	145057.0	-38464.0	-5691821.0
16	15	4	53	637	205.0	174718.0	-38787.0	-5691297.0
16	15	4	53	674	206.0	194318.0	-37609.0	-5692271.0
16	15	4	53	675	207.0	219600.0	-36577.0	-5692739.0
16	15	4	53	675	208.0	226611.0	-35450.0	-5691947.0
16	15	4	53	675	209.0	185378.0	-34151.0	-5691343.0
16	15	4	53	675	210.0	249147.0	-32884.0	-5692080.0
16	15	4	53	676	211.0	358022.0	-30669.0	-5692777.0
16	15	4	53	676	212.0	359806.0	-27526.0	-5692029.0
16	15	4	53	676	213.0	275651.0	-26001.0	-5691300.0
16	15	4	53	719	214.0	271928.0	-24961.0	-5691609.0
16	15	4	53	719	215.0	273360.0	-23932.0	-5692514.0
16	15	4	53	719	216.0	176832.0	-22316.0	-5691849.0
16	15	4	53	720	217.0	24904.0	-20757.0	-5691092.0
16	15	4	53	720	218.0	-95297.0	-19718.0	-5691417.0
16	15	4	53	720	219.0	-107322.0	-19137.0	-5692322.0
16	15	4	53	720	220.0	-103552.0	-17405.0	-5691654.0
16	15	4	53	721	221.0	-159569.0	-16597.0	-5690964.0
16	15	4	53	721	222.0	-246314.0	-15947.0	-5691892.0
16	15	4	53	721	223.0	-305536.0	-14872.0	-5692433.0
16	15	4	53	722	224.0	-296616.0	-13432.0	-5691708.0
16	15	4	53	722	226.0	-222876.0	-11858.0	-5691871.0
16	15	4	53	722	227.0	-236491.0	-12511.0	-5692545.0
16	15	4	53	722	228.0	-302519.0	-10787.0	-5691879.0
16	15	4	53	722	229.0	-381384.0	-9189.0	-5691059.0
16	15	4	53	723	248.0	-230301.0	-6786.0	-5692450.0
16	15	4	53	723	249.0	-168352.0	-8757.0	-5691691.0
16	15	4	53	723	250.0	-83361.0	-10115.0	-5691404.0
16	15	4	53	723	251.0	-1482.0	-10338.0	-5692704.0
16	15	4	53	765	252.0	50067.0	-10854.0	-5692511.0
16	15	4	53	766	253.0	99769.0	-11173.0	-5691741.0
16	15	4	53	766	254.0	145958.0	-11367.0	-5691380.0
16	15	4	53	766	255.0	172283.0	-11122.0	-5692669.0
16	15	4	53	766	0.0	221390.0	-9865.0	-5692544.0
16	15	4	53	767	1.0	280710.0	-9392.0	-5691786.0
16	15	4	53	767	2.0	309663.0	-9017.0	-5691212.0
16	15	4	53	767	3.0	285163.0	-9696.0	-5692306.0
16	15	4	53	767	4.0	262733.0	-10390.0	-5692360.0
16	15	4	53	768	5.0	278424.0	-10706.0	-5691650.0
16	15	4	53	768	6.0	316921.0	-10864.0	-5690962.0
16	15	4	53	768	7.0	366264.0	-10965.0	-5691959.0
16	15	4	53	768	8.0	410845.0	-11199.0	-5692297.0
16	15	4	53	769	9.0	482348.0	-11537.0	-5691626.0
16	15	4	53	769	10.0	549562.0	-11773.0	-5691192.0
16	15	4	53	769	11.0	559478.0	-12298.0	-5692675.0
16	15	4	53	769	12.0	518185.0	-12951.0	-5692569.0
16	15	4	53	769	14.0	421444.0	-14166.0	-5691315.0
16	15	4	53	770	15.0	360880.0	-14815.0	-5692288.0
16	15	4	53	770	16.0	299690.0	-16564.0	-5692047.0
16	15	4	53	770	17.0	249786.0	-16739.0	-5691346.0
16	15	4	53	770	18.0	214179.0	-17319.0	-5691640.0
16	15	4	53	771	19.0	201679.0	-17786.0	-5692609.0
16	15	4	53	771	20.0	209405.0	-18209.0	-5691896.0
16	15	4	53	813	21.0	217098.0	-18204.0	-5691206.0
16	15	4	53	813	22.0	206820.0	-17769.0	-5691054.0
16	15	4	53	813	23.0	152214.0	-15873.0	-5692336.0
16	15	4	53	814	24.0	32148.0	-15324.0	-5691847.0
16	15	4	53	814	25.0	-175829.0	-15261.0	-5691113.0
16	15	4	53	814	26.0	-428269.0	-16001.0	-5691022.0
16	15	4	53	814	27.0	-670360.0	-16320.0	-5692116.0
16	15	4	53	815	28.0	-828510.0	-15896.0	-5691537.0
16	15	4	53	815	29.0	-846862.0	-15571.0	-5690854.0
16	15	4	53	815	30.0	-688320.0	-16211.0	-5691229.0
16	15	4	53	815	31.0	-388697.0	-15328.0	-5692297.0
16	15	4	53	816	32.0	-15107.0	-15207.0	-5691652.0
16	15	4	53	816	33.0	364452.0	-15475.0	-5690985.0
16	15	4	53	816	34.0	674314.0	-14770.0	-5691278.0
16	15	4	53	816	35.0	862448.0	-14682.0	-5692362.0
16	15	4	53	817	37.0	810975.0	-13833.0	-5691055.0
16	15	4	53	817	38.0	603274.0	-15361.0	-5690957.0
16	15	4	53	817	39.0	360201.0	-16446.0	-5692231.0
16	15	4	53	817	40.0	143970.0	-16265.0	-5691866.0
16	15	4	53	818	41.0	3476.0	-16111.0	-5691047.0
16	15	4	53	818	42.0	14261.0	-15810.0	-5690788.0
16	15	4	53	861	43.0	244408.0	-15402.0	-5692078.0
16	15	4	53	861	44.0	653818.0	-14807.0	-5691933.0
16	15	4	53	862	45.0	1216399.0	-12653.0	-5691196.0
16	15	4	53	862	46.0	1909390.0	-11651.0	-5691312.0
16	15	4	53	862	47.0	2177804.0	-10330.0	-5692498.0
16	15	4	53	862	48.0	1818849.0	-9889.0	-5692056.0
16	15	4	53	862	49.0	1310949.0	-9455.0	-5691228.0
16	15	4	53	863	50.0	765291.0	-9367.0	-5691361.0
16	15	4	53	863	51.0	367444.0	-9669.0	-5692300.0
16	15	4	53	863	52.0	-194399.0	-9641.0	-5691726.0
16	15	4	53	863	53.0	-775151.0	-9384.0	-5690832.0
16	15	4	53	864	54.0	-957373.0	-9261.0	-5690419.0
16	15	4	53	864	55.0	-835978.0	-9174.0	-5691575.0
16	15	4	53	864	56.0	-755828.0	-9187.0	-5691669.0
16	15	4	53	864	57.0	-793227.0	-9138.0	-5690837.0
16	15	4	53	865	59.0	-872308.0	-8207.0	-5691667.0
16	15	4	53	865	60.0	-965886.0	-8137.0	-5691578.0
16	15	4	53	865	61.0	-1104184.0	-9579.0	-5690733.0
16	15	4	53	865	62.0	-1274996.0	-9929.0	-5690488.0
16	15	4	53	866	63.0	-1411588.0	-9662.0	-5691712.0
16	15	4	53	866	64.0	-1506309.0	-9587.0	-5691537.0
16	15	4	53	866	65.0	-1516789.0	-9384.0	-5690729.0
16	15	4	53	911	66.0	-1431615.0	-9149.0	-5690262.0
16	15	4	53	912	67.0	-1262394.0	-8374.0	-5691476.0
16	15	4	53	912	68.0	-996822.0	-6153.0	-5691692.0
16	15	4	53	912	69.0	-660306.0	-5347.0	-5690991.0
16	15	4	53	912	70.0	-329636.0	-4820.0	-5690342.0
16	15	4	53	913	71.0	-40089.0	-4532.0	-5691203.0
16	15	4	53	913	72.0	159134.0	-4204.0	-5691899.0
16	15	4	53	913	73.0	210806.0	-3649.0	-5691176.0
16	15	4	53	913	74.0	139642.0	-3334.0	-5690464.0
16	15	4	53	914	75.0	17769.0	-3232.0	-5691391.0
16	15	4	53	914	76.0	-122765.0	-3351.0	-5691900.0
16	15	4	53	914	77.0	-262904.0	-3042.0	-5691163.0
16	15	4	53	914	78.0	-369480.0	-3358.0	-5690434.0
16	15	4	53	915	79.0	-429290.0	-2953.0	-5691211.0
16	15	4	53	915	80.0	-431307.0	-2237.0	-5691812.0
16	15	4	53	915	82.0	-351374.0	-1841.0	-5690369.0
16	15	4	53	915	83.0	-303936.0	-3054.0	-5690801.0
16	15	4	53	916	84.0	-291730.0	-4033.0	-5691698.0
16	15	4	53	916	85.0	-307299.0	-3661.0	-5691116.0
16	15	4	53	916	86.0	-310916.0	-3597.0	-5690313.0
16	15	4	53	916	87.0	-282162.0	-3392.0	-5690684.0
16	15	4	53	964	88.0	-227320.0	-3217.0	-5691733.0
16	15	4	53	964	89.0	-146471.0	-2734.0	-5691232.0
16	15	4	53	964	90.0	-58386.0	-674.0	-5690477.0
16	15	4	53	965	91.0	20419.0	294.0	-5691252.0
16	15	4	53	965	92.0	59617.0	818.0	-5691987.0
16	15	4	53	965	93.0	62087.0	1004.0	-5691351.0
16	15	4	53	966	94.0	46976.0	960.0	-5690543.0
16	15	4	53	966	95.0	10967.0	813.0	-5690889.0
16	15	4	53	966	96.0	-17486.0	1351.0	-5691938.0
16	15	4	53	966	97.0	-66746.0	957.0	-5691411.0
16	15	4	53	967	98.0	-143648.0	1545.0	-5690571.0
16	15	4	53	967	99.0	-226486.0	2004.0	-5690600.0
16	15	4	53	967	100.0	-292874.0	2449.0	-5691749.0
16	15	4	53	968	101.0	-333906.0	2148.0	-5691310.0
16	15	4	53	968	102.0	-355322.0	1936.0	-5690535.0
16	15	4	53	968	104.0	-358469.0	2543.0	-5691899.0
16	15	4	53	968	105.0	-391399.0	2153.0	-5691526.0
16	15	4	53	969	106.0	-379118.0	470.0	-5690774.0
16	15	4	53	969	107.0	-297280.0	384.0	-5690736.0
16	15	4	53	969	108.0	-168695.0	509.0	-5692045.0
16	15	4	53	969	109.0	-65212.0	703.0	-5691677.0
16	15	4	53	970	110.0	-37040.0	659.0	-5690939.0
16	15	4	54	16	111.0	-48231.0	733.0	-5690760.0
16	15	4	54	17	112.0	-67375.0	1559.0	-5692148.0
16	15	4	54	17	113.0	-48442.0	3371.0	-5691859.0
16	15	4	54	17	114.0	-601.0	4107.0	-5691116.0
16	15	4	54	17	115.0	47384.0	4618.0	-5690633.0
16	15	4	54	18	116.0	81167.0	4536.0	-5691887.0
16	15	4	54	18	117.0	102786.0	5107.0	-5691697.0
16	15	4	54	18	118.0	144829.0	5901.0	-5690965.0
16	15	4	54	18	119.0	214294.0	6103.0	-5690611.0
16	15	4	54	19	120.0	286666.0	6040.0	-5692002.0
16	15	4	54	19	121.0	324223.0	6318.0	-5691756.0
16	15	4	54	19	122.0	309857.0	6824.0	-5691044.0
16	15	4	54	19	123.0	277599.0	7345.0	-5690686.0
16	15	4	54	20	124.0	265438.0	7508.0	-5691646.0
16	15	4	54	20	125.0	297676.0	7880.0	-5691237.0
16	15	4	54	20	127.0	315358.0	9629.0	-5691309.0
16	15	4	54	20	128.0	245874.0	9212.0	-5692256.0
16	15	4	54	21	129.0	162601.0	9115.0	-5691504.0
16	15	4	54	21	130.0	98604.0	9500.0	-5690782.0
16	15	4	54	21	131.0	77606.0	11032.0	-5690677.0
16	15	4	54	21	132.0	79188.0	12778.0	-5691852.0
16	15	4	54	70	133.0	77120.0	14366.0	-5691312.0
16	15	4	54	71	134.0	44618.0	16742.0	-5690631.0
16	15	4	54	71	135.0	-1323.0	20414.0	-5690691.0
16	15	4	54	71	136.0	-57652.0	22713.0	-5691856.0
16	15	4	54	72	137.0	-118964.0	25311.0	-5691236.0
16	15	4	54	72	138.0	-189913.0	28038.0	-5690537.0
16	15	4	54	72	139.0	-263247.0	30103.0	-5690962.0
16	15	4	54	72	140.0	-298914.0	32827.0	-5692066.0
16	15	4	54	73	141.0	-286631.0	35546.0	-5691383.0
16	15	4	54	73	142.0	-221946.0	38234.0	-5690686.0
16	15	4	54	73	143.0	-124426.0	41216.0	-5690931.0
16	15	4	54	73	144.0	-15304.0	44489.0	-5692102.0
16	15	4	54	74	145.0	85160.0	47137.0	-5691476.0
16	15	4	54	74	146.0	169063.0	50484.0	-5690730.0
16	15	4	54	74	147.0	231833.0	52968.0	-5690693.0
16	15	4	54	74	149.0	295832.0	58124.0	-5691884.0
16	15	4	54	75	150.0	296235.0	60099.0	-5691107.0
16	15	4	54	75	151.0	238274.0	60423.0	-5690768.0
16	15	4	54	75	152.0	99304.0	62570.0	-5692123.0
16	15	4	54	75	153.0	-158824.0	64629.0	-5692038.0
16	15	4	54	76	154.0	-580077.0	66711.0	-5691202.0
16	15	4	54	76	155.0	-1242364.0	68454.0	-5691066.0
16	15	4	54	76	156.0	-2487958.0	69986.0	-5692187.0
16	15	4	54	76	157.0	-4829655.0	72785.0	-5691548.0
16	15	4	54	77	158.0	-6106201.0	75987.0	-5690605.0
16	15	4	54	77	159.0	-4908219.0	78071.0	-5690279.0
16	15	4	54	77	160.0	-1952659.0	79301.0	-5691627.0
16	15	4	54	77	161.0	1378851.0	80048.0	-5691948.0
16	15	4	54	125	162.0	4161691.0	81638.0	-5691408.0
16	15	4	54	126	163.0	5177195.0	82144.0	-5690885.0
16	15	4	54	126	164.0	4186763.0	83078.0	-5691564.0
16	15	4	54	126	165.0	2537695.0	84356.0	-5692162.0
16	15	4	54	126	166.0	1203433.0	84493.0	-5691271.0
16	15	4	54	127	167.0	275090.0	84138.0	-5690680.0
16	15	4	54	127	168.0	-279039.0	84023.0	-5691827.0
16	15	4	54	127	169.0	-444948.0	83278.0	-5692248.0
16	15	4	54	128	170.0	-301047.0	82461.0	-5691440.0
16	15	4	54	128	172.0	313236.0	80304.0	-5691965.0
16	15	4	54	128	173.0	460973.0	77398.0	-5692479.0
16	15	4	54	128	174.0	523860.0	75628.0	-5691694.0
16	15	4	54	129	175.0	541186.0	74418.0	-5691114.0
16	15	4	54	129	176.0	472626.0	73508.0	-5692009.0
16	15	4	54	129	177.0	300499.0	73424.0	-5692647.0
16	15	4	54	129	178.0	98788.0	71881.0	-5691836.0
16	15	4	54	130	179.0	-22302.0	69894.0	-5691127.0
16	15	4	54	130	180.0	-14340.0	67887.0	-5691647.0
16	15	4	54	130	181.0	73663.0	65399.0	-5692618.0
16	15	4	54	130	182.0	176273.0	63380.0	-5691945.0
16	15	4	54	131	194.0	1480508.0	32639.0	-5692344.0
16	15	4	54	131	195.0	1256594.0	28174.0	-5691519.0
16	15	4	54	131	196.0	1016729.0	23825.0	-5691742.0
16	15	4	54	132	197.0	836352.0	21269.0	-5692973.0
16	15	4	54	132	198.0	712308.0	18396.0	-5692504.0
16	15	4	54	132	199.0	621682.0	15321.0	-5691697.0
16	15	4	54	132	200.0	529753.0	12395.0	-5691375.0
16	15	4	54	181	201.0	434979.0	8978.0	-5692691.0
16	15	4	54	181	202.0	336079.0	6511.0	-5692666.0
16	15	4	54	181	203.0	223764.0	5613.0	-5691837.0
16	15	4	54	182	204.0	119360.0	3533.0	-5691643.0
16	15	4	54	182	205.0	17818.0	1255.0	-5692801.0
16	15	4	54	182	206.0	-80297.0	-896.0	-5692533.0
16	15	4	54	183	207.0	-163666.0	-2983.0	-5691702.0
16	15	4	54	183	208.0	-233839.0	-5764.0	-5691564.0
16	15	4	54	183	209.0	-306900.0	-8939.0	-5692889.0
16	15	4	54	183	210.0	-375028.0	-11439.0	-5692649.0
16	15	4	54	184	211.0	-431692.0	-13576.0	-5691772.0
16	15	4	54	184	212.0	-472569.0	-16195.0	-5691406.0
16	15	4	54	184	213.0	-502501.0	-18929.0	-5692625.0
16	15	4	54	184	214.0	-509346.0	-21179.0	-5692720.0
16	15	4	54	185	215.0	-490310.0	-23307.0	-5691887.0
16	15	4	54	185	217.0	-346445.0	-27949.0	-5692578.0
16	15	4	54	185	218.0	-264173.0	-31317.0	-5692663.0
16	15	4	54	185	219.0	-206461.0	-33361.0	-5691894.0
16	15	4	54	186	220.0	-176764.0	-35114.0	-5691523.0
16	15	4	54	186	221.0	-165812.0	-36408.0	-5692827.0
16	15	4	54	186	222.0	-170749.0	-37746.0	-5692939.0
16	15	4	54	241	223.0	-181901.0	-39191.0	-5692132.0
16	15	4	54	242	224.0	-192775.0	-40041.0	-5691697.0
16	15	4	54	242	225.0	-196692.0	-39166.0	-5692726.0
16	15	4	54	242	226.0	-187819.0	-39463.0	-5692719.0
16	15	4	54	242	227.0	-176957.0	-40502.0	-5691915.0
16	15	4	54	243	228.0	-165635.0	-41076.0	-5691229.0
16	15	4	54	243	229.0	-157565.0	-41828.0	-5692107.0
16	15	4	54	243	230.0	-134582.0	-42254.0	-5692806.0
16	15	4	54	244	231.0	-87913.0	-42551.0	-5692102.0
16	15	4	54	244	232.0	-29019.0	-43198.0	-5691386.0
16	15	4	54	244	233.0	21639.0	-43173.0	-5692167.0
16	15	4	54	244	234.0	59601.0	-42981.0	-5692781.0
16	15	4	54	245	235.0	97418.0	-42957.0	-5692135.0
16	15	4	54	245	236.0	144590.0	-43311.0	-5691526.0
16	15	4	54	245	237.0	167820.0	-43201.0	-5692675.0
16	15	4	54	245	239.0	189065.0	-42277.0	-5692424.0
16	15	4	54	246	240.0	185019.0	-43249.0	-5691706.0
16	15	4	54	246	241.0	176928.0	-44726.0	-5692623.0
16	15	4	54	246	242.0	167048.0	-44334.0	-5693264.0
16	15	4	54	246	243.0	128151.0	-43321.0	-5692596.0
16	15	4	54	247	244.0	72508.0	-42719.0	-5691747.0
16	15	4	54	247	245.0	19626.0	-41830.0	-5691953.0
16	15	4	54	304	246.0	-27005.0	-41056.0	-5693089.0
16	15	4	54	304	247.0	-70861.0	-38589.0	-5692618.0
16	15	4	54	304	248.0	-116661.0	-35911.0	-5691801.0
16	15	4	54	305	249.0	-150401.0	-34566.0	-5692071.0
16	15	4	54	305	250.0	-171438.0	-34196.0	-5693042.0
16	15	4	54	305	251.0	-193686.0	-33036.0	-5692492.0
16	15	4	54	306	252.0	-210988.0	-31395.0	-5691703.0
16	15	4	54	306	253.0	-216754.0	-29835.0	-5692239.0
16	15	4	54	306	254.0	-214171.0	-28358.0	-5693299.0
16	15	4	54	307	255.0	-193947.0	-27132.0	-5692709.0
16	15	4	54	307	0.0	-165100.0	-25793.0	-5691911.0
16	15	4	54	307	1.0	-146786.0	-24664.0	-5692016.0
16	15	4	54	307	2.0	-113324.0	-23156.0	-5693272.0
16	15	4	54	308	3.0	-53207.0	-21572.0	-5692836.0
16	15	4	54	308	4.0	27046.0	-20306.0	-5692111.0
16	15	4	54	308	6.0	294578.0	-18111.0	-5693035.0
16	15	4	54	309	7.0	406150.0	-18772.0	-5693059.0
16	15	4	54	309	8.0	484104.0	-18421.0	-5692324.0
16	15	4	54	309	9.0	543463.0	-17495.0	-5691690.0
16	15	4	54	309	10.0	574178.0	-16433.0	-5692831.0
16	15	4	54	310	11.0	564661.0	-15630.0	-5693097.0
16	15	4	54	310	12.0	517199.0	-15151.0	-5692382.0
16	15	4	54	310	13.0	504052.0	-13987.0	-5691884.0
16	15	4	54	310	14.0	494102.0	-11133.0	-5693129.0
16	15	4	54	311	15.0	462626.0	-9627.0	-5693107.0
16	15	4	54	311	16.0	413859.0	-8754.0	-5692374.0
16	15	4	54	311	17.0	342628.0	-7991.0	-5692249.0
16	15	4	54	312	18.0	289367.0	-6765.0	-5693609.0
16	15	4	54	312	19.0	232743.0	-5883.0	-5693157.0
16	15	4	54	312	20.0	143706.0	-5707.0	-5692441.0
16	15	4	54	313	21.0	47391.0	-5802.0	-5691719.0
16	15	4	54	313	22.0	-48755.0	-5147.0	-5692844.0
16	15	4	54	313	23.0	-110314.0	-5010.0	-5693446.0
16	15	4	54	313	24.0	-68813.0	-4606.0	-5692779.0
16	15	4	54	314	25.0	-65517.0	-4086.0	-5691991.0
16	15	4	54	314	26.0	-120538.0	-3699.0	-5692613.0
16	15	4	54	314	28.0	-225334.0	-2914.0	-5692906.0
16	15	4	54	314	29.0	-316808.0	-3683.0	-5692162.0
16	15	4	54	367	30.0	-371549.0	-5066.0	-5693036.0
16	15	4	54	368	31.0	-181175.0	-5142.0	-5693451.0
16	15	4	54	368	32.0	-71481.0	-5477.0	-5692762.0
16	15	4	54	368	33.0	-74136.0	-5594.0	-5692031.0
16	15	4	54	368	34.0	-149860.0	-5705.0	-5692825.0
16	15	4	54	369	35.0	-262632.0	-6291.0	-5693663.0
16	15	4	54	369	36.0	-133081.0	-4576.0	-5693027.0
16	15	4	54	369	37.0	24336.0	-3167.0	-5692314.0
16	15	4	54	369	38.0	67207.0	-3289.0	-5693085.0
16	15	4	54	370	39.0	166413.0	-3565.0	-5693980.0
16	15	4	54	370	40.0	315891.0	-3578.0	-5693301.0
16	15	4	54	370	41.0	332813.0	-4000.0	-5692536.0
16	15	4	54	370	42.0	251884.0	-4182.0	-5692471.0
16	15	4	54	371	43.0	235964.0	-4509.0	-5693639.0
16	15	4	54	371	44.0	246705.0	-4536.0	-5693162.0
16	15	4	54	372	45.0	249596.0	-4927.0	-5692412.0
16	15	4	54	372	46.0	359451.0	-5336.0	-5692502.0
16	15	4	54	372	47.0	543184.0	-5404.0	-5693083.0
16	15	4	54	372	48.0	686106.0	-5437.0	-5692483.0
16	15	4	54	373	51.0	561402.0	-7056.0	-5693436.0
16	15	4	54	373	52.0	194315.0	-9089.0	-5692606.0
16	15	4	54	373	53.0	-252720.0	-9768.0	-5691964.0
16	15	4	54	373	54.0	-680426.0	-10097.0	-5692859.0
16	15	4	54	374	55.0	-1006163.0	-10467.0	-5693224.0
16	15	4	54	374	56.0	-1169002.0	-10877.0	-5692408.0
16	15	4	54	503	57.0	-1145505.0	-10976.0	-5691922.0
16	15	4	54	504	58.0	-948593.0	-10567.0	-5693171.0
16	15	4	54	504	59.0	-608631.0	-9147.0	-5693468.0
16	15	4	54	504	60.0	-186532.0	-9339.0	-5692738.0
16	15	4	54	505	61.0	199281.0	-9077.0	-5692283.0
16	15	4	54	505	62.0	475216.0	-8845.0	-5693387.0
16	15	4	54	505	63.0	562871.0	-8732.0	-5693708.0
16	15	4	54	505	64.0	509173.0	-9107.0	-5692882.0
16	15	4	54	506	65.0	346283.0	-9409.0	-5692356.0
16	15	4	54	506	66.0	55825.0	-9376.0	-5693359.0
16	15	4	54	506	67.0	-225252.0	-9294.0	-5693669.0
16	15	4	54	507	68.0	-404526.0	-9756.0	-5692826.0
16	15	4	54	507	69.0	-341109.0	-10077.0	-5692187.0
16	15	4	54	507	70.0	48896.0	-10672.0	-5692926.0
16	15	4	54	507	71.0	651979.0	-10419.0	-5693899.0
16	15	4	54	508	95.0	213206.0	-8594.0	-5694617.0
16	15	4	54	508	96.0	565494.0	-8459.0	-5694250.0
16	15	4	54	508	97.0	931691.0	-10237.0	-5693498.0
16	15	4	54	509	98.0	1168546.0	-10622.0	-5693507.0
16	15	4	54	509	99.0	1214441.0	-10466.0	-5694833.0
16	15	4	54	509	100.0	1113489.0	-10182.0	-5694516.0
16	15	4	54	509	101.0	949747.0	-9782.0	-5693685.0
16	15	4	54	510	102.0	787789.0	-9345.0	-5693212.0
16	15	4	54	510	103.0	619286.0	-9211.0	-5694273.0
16	15	4	54	510	104.0	399967.0	-7179.0	-5694435.0
16	15	4	54	511	105.0	153657.0	-6259.0	-5693586.0
16	15	4	54	512	106.0	-66929.0	-6566.0	-5693282.0
16	15	4	54	512	107.0	-261843.0	-6481.0	-5694627.0
16	15	4	54	512	108.0	-430750.0	-5616.0	-5694589.0
16	15	4	54	513	109.0	-534132.0	-5532.0	-5693749.0
16	15	4	54	513	110.0	-588676.0	-5548.0	-5693327.0
16	15	4	54	513	111.0	-626356.0	-5277.0	-5694559.0
16	15	4	54	514	112.0	-663097.0	-5536.0	-5694825.0
16	15	4	54	514	113.0	-686738.0	-5187.0	-5694019.0
16	15	4	54	514	114.0	-693346.0	-4696.0	-5693378.0
16	15	4	54	515	115.0	-687101.0	-4665.0	-5694152.0
16	15	4	54	515	116.0	-670311.0	-4646.0	-5694902.0
16	15	4	54	515	118.0	-557997.0	-4115.0	-5693497.0
16	15	4	54	516	119.0	-497047.0	-5478.0	-5694174.0
16	15	4	54	516	120.0	-404338.0	-6711.0	-5694962.0
16	15	4	54	522	121.0	-279726.0	-6676.0	-5694268.0
16	15	4	54	522	122.0	-152987.0	-6601.0	-5693582.0
16	15	4	54	523	123.0	-31721.0	-6524.0	-5694461.0
16	15	4	54	523	124.0	55017.0	-6182.0	-5695150.0
16	15	4	54	524	125.0	79890.0	-4350.0	-5694436.0
16	15	4	54	524	126.0	61207.0	-2999.0	-5693727.0
16	15	4	54	524	127.0	13429.0	-2839.0	-5694599.0
16	15	4	54	576	128.0	-17839.0	-2748.0	-5695281.0
16	15	4	54	576	129.0	-32157.0	-2553.0	-5694605.0
16	15	4	54	577	130.0	-36041.0	-2422.0	-5693800.0
16	15	4	54	577	131.0	-41419.0	-1973.0	-5693781.0
16	15	4	54	577	132.0	-5942.0	-1416.0	-5694821.0
16	15	4	54	578	133.0	57873.0	-702.0	-5694407.0
16	15	4	54	578	134.0	106869.0	-747.0	-5693584.0
16	15	4	54	578	135.0	136548.0	-988.0	-5693977.0
16	15	4	54	578	140.0	221667.0	575.0	-5694896.0
16	15	4	54	579	141.0	269293.0	120.0	-5694341.0
16	15	4	54	579	142.0	322004.0	-1309.0	-5693527.0
16	15	4	54	579	143.0	361594.0	-1183.0	-5693799.0
16	15	4	54	580	144.0	375982.0	-837.0	-5694722.0
16	15	4	54	580	145.0	368707.0	217.0	-5694176.0
16	15	4	54	580	146.0	348868.0	971.0	-5693337.0
16	15	4	54	580	147.0	326390.0	1696.0	-5693311.0
16	15	4	54	581	148.0	312652.0	3289.0	-5694704.0
16	15	4	54	581	149.0	282150.0	5668.0	-5694382.0
16	15	4	54	581	150.0	239184.0	7239.0	-5693595.0
16	15	4	54	582	151.0	173277.0	8669.0	-5693261.0
16	15	4	54	582	152.0	87593.0	9625.0	-5694697.0
16	15	4	54	582	153.0	-7417.0	10521.0	-5694654.0
16	15	4	54	583	154.0	-107581.0	12149.0	-5693877.0
16	15	4	54	583	155.0	-186955.0	13897.0	-5693656.0
16	15	4	54	583	156.0	-228840.0	16194.0	-5695161.0
16	15	4	54	583	157.0	-227611.0	18688.0	-5694989.0
16	15	4	54	584	158.0	-208489.0	21034.0	-5694238.0
16	15	4	54	584	159.0	-201741.0	23629.0	-5693644.0
16	15	4	54	584	160.0	-211249.0	26489.0	-5694744.0
16	15	4	54	584	161.0	-212009.0	29625.0	-5694992.0
16	15	4	54	585	163.0	-163722.0	36005.0	-5693487.0
16	15	4	54	585	164.0	-119322.0	37777.0	-5694306.0
16	15	4	54	585	165.0	-81814.0	39255.0	-5694892.0
16	15	4	54	586	166.0	-52498.0	42099.0	-5694212.0
16	15	4	54	586	167.0	-24864.0	45645.0	-5693400.0
16	15	4	54	586	168.0	-2312.0	48889.0	-5693936.0
16	15	4	54	629	169.0	-3851.0	52040.0	-5694996.0
16	15	4	54	630	170.0	-45262.0	55758.0	-5694478.0
16	15	4	54	630	171.0	-105707.0	60949.0	-5693728.0
16	15	4	54	630	172.0	-157158.0	64750.0	-5694539.0
16	15	4	54	631	173.0	-188546.0	67348.0	-5695352.0
16	15	4	54	631	174.0	-189515.0	69824.0	-5694722.0
16	15	4	54	631	175.0	-146620.0	72672.0	-5693905.0
16	15	4	54	632	176.0	-88637.0	75174.0	-5694442.0
16	15	4	54	632	177.0	-36051.0	77272.0	-5695471.0
16	15	4	54	632	178.0	-18382.0	79550.0	-5694910.0
16	15	4	54	632	179.0	-43802.0	82143.0	-5694068.0
16	15	4	54	633	180.0	-124937.0	84058.0	-5694006.0
16	15	4	54	633	181.0	-280974.0	85723.0	-5695299.0
16	15	4	54	633	182.0	-538752.0	87436.0	-5694916.0
16	15	4	54	634	183.0	-936764.0	88666.0	-5694077.0
16	15	4	54	634	185.0	-2656561.0	91514.0	-5694892.0
16	15	4	54	634	186.0	-4600877.0	91732.0	-5694466.0
16	15	4	54	634	187.0	-5615407.0	89959.0	-5693614.0
16	15	4	54	635	188.0	-4528894.0	90434.0	-5693455.0
16	15	4	54	635	189.0	-2154367.0	90606.0	-5695064.0
16	15	4	54	635	190.0	948617.0	91287.0	-5695227.0
16	15	4	54	635	191.0	3924496.0	90959.0	-5694764.0
16	15	4	54	683	192.0	5172591.0	89816.0	-5694213.0
16	15	4	54	683	193.0	4438809.0	90435.0	-5695075.0
16	15	4	54	684	194.0	2976788.0	92592.0	-5695271.0
16	15	4	54	684	195.0	1535444.0	92537.0	-5694392.0
16	15	4	54	684	196.0	486991.0	91501.0	-5693972.0
16	15	4	54	684	197.0	-52340.0	90183.0	-5695374.0
16	15	4	54	685	198.0	-236516.0	88654.0	-5695172.0
16	15	4	54	685	199.0	-196626.0	86596.0	-5694467.0
16	15	4	54	685	200.0	-79224.0	84608.0	-5693951.0
16	15	4	54	686	201.0	9533.0	82834.0	-5695145.0
16	15	4	54	686	202.0	96848.0	81039.0	-5695119.0
16	15	4	54	686	203.0	187774.0	78700.0	-5694426.0
16	15	4	54	686	204.0	229931.0	76877.0	-5694317.0
16	15	4	54	687	205.0	167766.0	73720.0	-5695675.0
16	15	4	54	687	206.0	19471.0	70773.0	-5695229.0
16	15	4	54	687	208.0	-214799.0	65291.0	-5694117.0
16	15	4	54	687	209.0	-247033.0	60529.0	-5695021.0
16	15	4	54	688	210.0	-264317.0	56656.0	-5694613.0
16	15	4	54	688	211.0	-218589.0	53456.0	-5693952.0
16	15	4	54	688	212.0	-196497.0	50414.0	-5694562.0
16	15	4	54	689	213.0	-265086.0	47190.0	-5695166.0
16	15	4	54	736	214.0	-149674.0	43904.0	-5694436.0
16	15	4	54	737	215.0	325428.0	40937.0	-5693788.0
16	15	4	54	737	216.0	962581.0	39715.0	-5694096.0
16	15	4	54	737	217.0	1476446.0	37154.0	-5695337.0
16	15	4	54	737	218.0	1722612.0	34139.0	-5694727.0
16	15	4	54	738	219.0	1711427.0	31313.0	-5694069.0
16	15	4	54	738	220.0	1520214.0	28407.0	-5694444.0
16	15	4	54	738	221.0	1282353.0	26221.0	-5695451.0
16	15	4	54	739	222.0	1101563.0	23016.0	-5694714.0
16	15	4	54	739	223.0	994445.0	19799.0	-5694056.0
16	15	4	54	739	224.0	919602.0	17006.0	-5694591.0
16	15	4	54	739	225.0	826429.0	14300.0	-5695610.0
16	15	4	54	740	226.0	704919.0	11048.0	-5694867.0
16	15	4	54	740	227.0	573476.0	7694.0	-5694128.0
16	15	4	54	740	228.0	474935.0	4977.0	-5694093.0
16	15	4	54	740	230.0	407389.0	-1052.0	-5694833.0
16	15	4	54	741	231.0	403617.0	-5476.0	-5694121.0
16	15	4	54	741	232.0	379281.0	-9727.0	-5693793.0
16	15	4	54	741	233.0	354337.0	-12708.0	-5694973.0
16	15	4	54	742	234.0	332737.0	-15369.0	-5694756.0
16	15	4	54	742	235.0	284639.0	-18006.0	-5694039.0
16	15	4	54	742	236.0	216541.0	-20423.0	-5694104.0
16	15	4	54	796	237.0	134078.0	-22949.0	-5695422.0
16	15	4	54	797	238.0	43321.0	-24422.0	-5694949.0
16	15	4	54	797	239.0	-46312.0	-25272.0	-5694176.0
16	15	4	54	797	240.0	-126362.0	-26986.0	-5694143.0
16	15	4	54	798	241.0	-198172.0	-29346.0	-5695153.0
16	15	4	54	798	242.0	-266615.0	-31800.0	-5694684.0
16	15	4	54	798	243.0	-346951.0	-33170.0	-5693858.0
16	15	4	54	798	244.0	-449342.0	-34879.0	-5693573.0
16	15	4	54	799	245.0	-563598.0	-37071.0	-5694686.0
16	15	4	54	799	246.0	-666967.0	-39014.0	-5694459.0
16	15	4	54	799	247.0	-751834.0	-39995.0	-5693636.0
16	15	4	54	800	248.0	-807330.0	-40776.0	-5693522.0
16	15	4	54	800	249.0	-824391.0	-42034.0	-5694934.0
16	15	4	54	800	250.0	-814907.0	-43557.0	-5694747.0
16	15	4	54	800	251.0	-782704.0	-44826.0	-5693952.0
16	15	4	54	801	253.0	-656307.0	-46869.0	-5695081.0
16	15	4	54	801	254.0	-544662.0	-48949.0	-5694832.0
16	15	4	54	801	255.0	-406091.0	-50149.0	-5694015.0
16	15	4	54	802	0.0	-257320.0	-50634.0	-5693894.0
16	15	4	54	802	1.0	-122870.0	-51381.0	-5695152.0
16	15	4	54	802	2.0	-12800.0	-51674.0	-5694927.0
16	15	4	54	802	3.0	75259.0	-51829.0	-5694067.0
16	15	4	54	803	4.0	145290.0	-50896.0	-5693627.0
16	15	4	54	803	5.0	191637.0	-48802.0	-5694823.0
16	15	4	54	803	6.0	204841.0	-48312.0	-5695062.0
16	15	4	54	803	7.0	190401.0	-48003.0	-5694243.0
16	15	4	54	804	8.0	156296.0	-47926.0	-5693735.0
16	15	4	54	856	9.0	113318.0	-47523.0	-5694844.0
16	15	4	54	856	10.0	72496.0	-46834.0	-5695161.0
16	15	4	54	856	11.0	32196.0	-45879.0	-5694357.0
16	15	4	54	857	12.0	7909.0	-45357.0	-5693849.0
16	15	4	54	857	13.0	-6972.0	-45050.0	-5694899.0
16	15	4	54	857	14.0	-16685.0	-44081.0	-5695034.0
16	15	4	54	858	15.0	-25904.0	-43024.0	-5694247.0
16	15	4	54	858	16.0	-31944.0	-41814.0	-5693721.0
16	15	4	54	858	17.0	-20779.0	-40279.0	-5694739.0
16	15	4	54	858	19.0	41271.0	-37754.0	-5694061.0
16	15	4	54	859	20.0	88742.0	-38122.0	-5693407.0
16	15	4	54	859	21.0	151548.0	-39059.0	-5694426.0
16	15	4	54	859	22.0	221372.0	-37264.0	-5695026.0
16	15	4	54	859	23.0	303178.0	-34425.0	-5694317.0
16	15	4	54	860	24.0	416866.0	-32836.0	-5693592.0
16	15	4	54	860	42.0	-645009.0	-16267.0	-5694524.0
16	15	4	54	860	43.0	-648916.0	-17496.0	-5693845.0
16	15	4	54	861	44.0	-640883.0	-17848.0	-5693077.0
16	15	4	54	861	45.0	-621057.0	-17516.0	-5693752.0
16	15	4	54	861	46.0	-605769.0	-16966.0	-5694696.0
16	15	4	54	862	47.0	-604893.0	-16938.0	-5694111.0
16	15	4	54	915	48.0	-608292.0	-16826.0	-5693457.0
16	15	4	54	916	49.0	-622334.0	-16022.0	-5694636.0
16	15	4	54	916	50.0	-617376.0	-14229.0	-5695107.0
16	15	4	54	916	51.0	-560284.0	-13822.0	-5694382.0
16	15	4	54	917	52.0	-470795.0	-13767.0	-5693585.0
16	15	4	54	917	53.0	-371216.0	-13256.0	-5693907.0
16	15	4	54	917	54.0	-271032.0	-12674.0	-5695068.0
16	15	4	54	918	55.0	-191728.0	-12632.0	-5694502.0
16	15	4	54	918	56.0	-142937.0	-12792.0	-5693759.0
16	15	4	54	918	57.0	-94727.0	-12856.0	-5693664.0
16	15	4	54	918	58.0	-34491.0	-13260.0	-5694933.0
16	15	4	54	919	59.0	41890.0	-13525.0	-5694559.0
16	15	4	54	919	60.0	123287.0	-13422.0	-5693827.0
16	15	4	54	919	61.0	200309.0	-13737.0	-5694013.0
16	15	4	54	919	62.0	251866.0	-13779.0	-5694481.0
16	15	4	54	920	64.0	317995.0	-13215.0	-5693553.0
16	15	4	54	920	65.0	358685.0	-14659.0	-5695023.0
16	15	4	54	920	66.0	391591.0	-16370.0	-5694839.0
16	15	4	54	921	67.0	420581.0	-16557.0	-5694032.0
16	15	4	54	921	68.0	446309.0	-16729.0	-5693456.0
16	15	4	54	921	69.0	451956.0	-16734.0	-5694401.0
16	15	4	54	922	70.0	432498.0	-17106.0	-5694666.0
16	15	4	54	976	71.0	382784.0	-17171.0	-5693847.0
16	15	4	54	976	72.0	305153.0	-16176.0	-5693279.0
16	15	4	54	976	73.0	244723.0	-14147.0	-5694195.0
16	15	4	54	977	74.0	229482.0	-14196.0	-5694456.0
16	15	4	54	977	75.0	257604.0	-14296.0	-5693661.0
16	15	4	54	977	76.0	328521.0	-14319.0	-5693341.0
16	15	4	54	977	77.0	416719.0	-14484.0	-5694647.0
16	15	4	54	978	78.0	490069.0	-14674.0	-5694641.0
16	15	4	54	978	79.0	498767.0	-14945.0	-5693835.0
16	15	4	54	978	80.0	382414.0	-14994.0	-5693391.0
16	15	4	54	978	81.0	119999.0	-14879.0	-5694635.0
16	15	4	54	979	82.0	-269181.0	-15392.0	-5694827.0
16	15	4	54	979	83.0	-707263.0	-15842.0	-5693923.0
16	15	4	54	979	84.0	-1105159.0	-15997.0	-5693260.0
16	15	4	54	979	85.0	-1377233.0	-16339.0	-5693810.0
16	15	4	54	979	87.0	-1337022.0	-16850.0	-5693618.0
16	15	4	54	980	88.0	-985349.0	-18722.0	-5693107.0
16	15	4	54	980	89.0	-460965.0	-19364.0	-5694202.0
16	15	4	54	980	90.0	132213.0	-19656.0	-5694778.0
16	15	4	54	980	91.0	720453.0	-19775.0	-5694057.0
16	15	4	54	981	92.0	1183099.0	-19419.0	-5693456.0
16	15	4	54	981	93.0	1409407.0	-19127.0	-5694144.0
16	15	4	54	981	94.0	1419173.0	-18641.0	-5695004.0
16	15	4	54	982	95.0	1332046.0	-16776.0	-5694281.0
16	15	4	54	982	96.0	1111738.0	-16004.0	-5693599.0
16	15	4	54	982	97.0	797843.0	-15477.0	-5694239.0
16	15	4	54	982	98.0	595238.0	-15352.0	-5694809.0
16	15	4	54	983	99.0	683741.0	-14972.0	-5694048.0
16	15	4	54	983	100.0	1037544.0	-14752.0	-5693299.0
16	15	4	54	983	101.0	1535796.0	-14771.0	-5693388.0
16	15	4	54	984	102.0	1826679.0	-14399.0	-5694604.0
16	15	4	54	984	103.0	1834466.0	-14199.0	-5694151.0
16	15	4	54	984	104.0	2015560.0	-14268.0	-5693386.0
16	15	4	54	984	105.0	1850960.0	-14374.0	-5693449.0
16	15	4	54	985	106.0	838493.0	-14027.0	-5694622.0
16	15	4	54	985	107.0	-466521.0	-14008.0	-5694074.0
16	15	4	54	985	109.0	-2107216.0	-13681.0	-5693752.0
16	15	4	54	986	110.0	-2363809.0	-15286.0	-5694623.0
16	15	4	54	986	111.0	-2142494.0	-16479.0	-5694047.0
16	15	4	54	986	112.0	-1629214.0	-16673.0	-5693337.0
16	15	4	54	987	113.0	-1202890.0	-16929.0	-5693727.0
16	15	4	54	987	114.0	-1053397.0	-16834.0	-5694505.0
16	15	4	55	34	115.0	-960760.0	-16445.0	-5693902.0
16	15	4	55	34	116.0	-683869.0	-15725.0	-5693092.0
16	15	4	55	35	117.0	-334272.0	-13589.0	-5693378.0
16	15	4	55	35	118.0	-1568.0	-12271.0	-5694519.0
16	15	4	55	35	119.0	223979.0	-12099.0	-5694068.0
16	15	4	55	35	120.0	208653.0	-12067.0	-5693237.0
16	15	4	55	36	121.0	-53101.0	-11877.0	-5693187.0
16	15	4	55	36	122.0	-378372.0	-11656.0	-5694369.0
16	15	4	55	36	123.0	-557200.0	-10973.0	-5694025.0
16	15	4	55	37	124.0	-461992.0	-10722.0	-5693204.0
16	15	4	55	37	125.0	-192784.0	-10549.0	-5693421.0
16	15	4	55	37	126.0	79296.0	-10164.0	-5694537.0
16	15	4	55	37	127.0	282527.0	-9392.0	-5694077.0
16	15	4	55	38	128.0	381969.0	-9151.0	-5693269.0
16	15	4	55	38	129.0	387056.0	-9284.0	-5693262.0
16	15	4	55	38	131.0	216309.0	-7989.0	-5694245.0
16	15	4	55	39	132.0	128331.0	-8222.0	-5693429.0
16	15	4	55	39	133.0	40526.0	-9757.0	-5692963.0
16	15	4	55	39	134.0	-36308.0	-9667.0	-5694289.0
16	15	4	55	39	135.0	-59413.0	-9569.0	-5694366.0
16	15	4	55	40	136.0	-16209.0	-9242.0	-5693632.0
16	15	4	55	40	137.0	50118.0	-9344.0	-5693053.0
16	15	4	55	95	138.0	79044.0	-9152.0	-5694232.0
16	15	4	55	96	139.0	76353.0	-8596.0	-5694529.0
16	15	4	55	96	140.0	57953.0	-6517.0	-5693774.0
16	15	4	55	96	141.0	46404.0	-5465.0	-5693207.0
16	15	4	55	96	142.0	-3829.0	-5337.0	-5694441.0
16	15	4	55	96	143.0	-92667.0	-4900.0	-5694720.0
16	15	4	55	97	144.0	-185980.0	-4756.0	-5693976.0
16	15	4	55	97	145.0	-258851.0	-4612.0	-5693286.0
16	15	4	55	97	146.0	-309996.0	-4644.0	-5694310.0
16	15	4	55	97	147.0	-352090.0	-4264.0	-5694811.0
16	15	4	55	98	148.0	-395011.0	-4182.0	-5694123.0
16	15	4	55	98	149.0	-446069.0	-4077.0	-5693341.0
16	15	4	55	98	150.0	-496659.0	-3812.0	-5694024.0
16	15	4	55	98	151.0	-521162.0	-2665.0	-5694953.0
16	15	4	55	98	152.0	-502584.0	-2406.0	-5694356.0
16	15	4	55	99	154.0	-377712.0	-2331.0	-5693895.0
16	15	4	55	99	155.0	-353826.0	-3632.0	-5694874.0
16	15	4	55	99	156.0	-379237.0	-4637.0	-5694343.0
16	15	4	55	99	157.0	-395635.0	-4264.0	-5693513.0
16	15	4	55	99	158.0	-379191.0	-4037.0	-5694028.0
16	15	4	55	100	159.0	-335069.0	-3996.0	-5695047.0
16	15	4	55	160	160.0	-286685.0	-4089.0	-5694487.0
16	15	4	55	161	161.0	-244199.0	-3555.0	-5693664.0
16	15	4	55	161	162.0	-215959.0	-1188.0	-5693632.0
16	15	4	55	162	163.0	-208816.0	79.0	-5694851.0
16	15	4	55	162	164.0	-207221.0	534.0	-5694479.0
16	15	4	55	162	165.0	-190212.0	618.0	-5693690.0
16	15	4	55	162	166.0	-168707.0	1227.0	-5693272.0
16	15	4	55	163	167.0	-140364.0	1764.0	-5694668.0
16	15	4	55	163	168.0	-98781.0	2090.0	-5694771.0
16	15	4	55	163	169.0	-28933.0	2546.0	-5694001.0
16	15	4	55	163	170.0	66529.0	3164.0	-5693635.0
16	15	4	55	164	171.0	150995.0	4053.0	-5694976.0
16	15	4	55	164	172.0	189087.0	5099.0	-5694908.0
16	15	4	55	164	173.0	178183.0	6141.0	-5694121.0
16	15	4	55	164	174.0	135850.0	7365.0	-5693641.0
16	15	4	55	165	199.0	110520.0	80898.0	-5694171.0
16	15	4	55	165	200.0	152561.0	82121.0	-5695301.0
16	15	4	55	165	201.0	194866.0	84168.0	-5694726.0
16	15	4	55	166	202.0	198011.0	87166.0	-5693967.0
16	15	4	55	166	203.0	164224.0	89534.0	-5694266.0
16	15	4	55	166	204.0	107137.0	92459.0	-5695380.0
16	15	4	55	224	205.0	47282.0	94702.0	-5694851.0
16	15	4	55	224	206.0	7708.0	96942.0	-5694103.0
16	15	4	55	224	207.0	10114.0	100566.0	-5694367.0
16	15	4	55	225	208.0	22718.0	102932.0	-5695457.0
16	15	4	55	225	209.0	9218.0	104509.0	-5694898.0
16	15	4	55	226	210.0	-50924.0	105891.0	-5694131.0
16	15	4	55	226	211.0	-179936.0	107307.0	-5694179.0
16	15	4	55	226	212.0	-379920.0	108874.0	-5695324.0
16	15	4	55	227	213.0	-660048.0	109558.0	-5694751.0
16	15	4	55	227	214.0	-1074642.0	109347.0	-5693983.0
16	15	4	55	227	215.0	-1696974.0	109932.0	-5693461.0
16	15	4	55	228	216.0	-3051512.0	110308.0	-5694594.0
16	15	4	55	228	217.0	-4590330.0	110091.0	-5694232.0
16	15	4	55	228	218.0	-4078597.0	110119.0	-5693573.0
16	15	4	55	288	219.0	-1813442.0	109018.0	-5693601.0
16	15	4	55	289	221.0	3851758.0	106733.0	-5694377.0
16	15	4	55	289	222.0	5208201.0	103938.0	-5693854.0
16	15	4	55	289	223.0	4528019.0	100535.0	-5694525.0
16	15	4	55	290	224.0	3132418.0	98934.0	-5695092.0
16	15	4	55	290	225.0	1772451.0	97029.0	-5694229.0
16	15	4	55	290	226.0	788021.0	94294.0	-5693491.0
16	15	4	55	291	227.0	277491.0	93561.0	-5694231.0
16	15	4	55	291	228.0	4836.0	92420.0	-5694784.0
16	15	4	55	291	229.0	-60237.0	89498.0	-5693994.0
16	15	4	55	292	230.0	16778.0	86747.0	-5693329.0
16	15	4	55	292	231.0	70865.0	83419.0	-5693734.0
16	15	4	55	292	232.0	121448.0	80074.0	-5694914.0
16	15	4	55	292	233.0	214844.0	76918.0	-5694272.0
16	15	4	55	293	234.0	252141.0	73533.0	-5693639.0
16	15	4	55	293	244.0	589447.0	38544.0	-5694408.0
16	15	4	55	293	245.0	610707.0	33349.0	-5694501.0
16	15	4	55	293	246.0	539083.0	28752.0	-5693824.0
16	15	4	55	294	247.0	470051.0	25567.0	-5694139.0
16	15	4	55	294	248.0	450019.0	21709.0	-5695160.0
16	15	4	55	294	249.0	506634.0	18151.0	-5694471.0
16	15	4	55	295	250.0	589136.0	15313.0	-5693856.0
16	15	4	55	295	251.0	621722.0	12361.0	-5694739.0
16	15	4	55	295	252.0	573418.0	11134.0	-5695534.0
16	15	4	55	295	253.0	461275.0	8942.0	-5694745.0
16	15	4	55	296	254.0	306543.0	6030.0	-5694064.0
16	15	4	55	296	255.0	164101.0	3433.0	-5694491.0
16	15	4	55	296	0.0	72162.0	-12.0	-5695334.0
16	15	4	55	296	1.0	34714.0	-3006.0	-5694609.0
16	15	4	55	297	2.0	40883.0	-6132.0	-5693912.0
16	15	4	55	297	3.0	76749.0	-8965.0	-5694179.0
16	15	4	55	353	4.0	115502.0	-11896.0	-5695373.0
16	15	4	55	354	5.0	143484.0	-14434.0	-5694789.0
16	15	4	55	354	6.0	152658.0	-16576.0	-5694039.0
16	15	4	55	354	7.0	134590.0	-18574.0	-5694091.0
16	15	4	55	355	8.0	101439.0	-21013.0	-5695372.0
16	15	4	55	355	10.0	39988.0	-25673.0	-5694164.0
16	15	4	55	355	11.0	20577.0	-29114.0	-5694544.0
16	15	4	55	355	12.0	2121.0	-33682.0	-5695744.0
16	15	4	55	356	13.0	-24393.0	-35948.0	-5695174.0
16	15	4	55	356	14.0	-65921.0	-37973.0	-5694392.0
16	15	4	55	356	15.0	-122750.0	-40237.0	-5694290.0
16	15	4	55	357	16.0	-171970.0	-42178.0	-5695369.0
16	15	4	55	357	17.0	-212762.0	-43950.0	-5694975.0
16	15	4	55	357	18.0	-242816.0	-45077.0	-5694132.0
16	15	4	55	357	19.0	-238274.0	-44854.0	-5693863.0
16	15	4	55	358	20.0	-185767.0	-46037.0	-5695070.0
16	15	4	55	358	21.0	-100754.0	-47594.0	-5694942.0
16	15	4	55	358	22.0	4213.0	-48684.0	-5694121.0
16	15	4	55	359	23.0	122743.0	-49486.0	-5693892.0
16	15	4	55	359	24.0	233436.0	-50722.0	-5695237.0
16	15	4	55	359	25.0	324938.0	-51396.0	-5695145.0
16	15	4	55	359	26.0	390903.0	-52049.0	-5694334.0
16	15	4	55	360	27.0	431723.0	-52408.0	-5693992.0
16	15	4	55	360	28.0	447748.0	-52782.0	-5695107.0
16	15	4	55	360	29.0	443409.0	-53189.0	-5695035.0
16	15	4	55	360	30.0	406092.0	-53421.0	-5694210.0
16	15	4	55	361	31.0	358595.0	-53560.0	-5694172.0
16	15	4	55	361	33.0	277436.0	-53127.0	-5695075.0
16	15	4	55	362	34.0	241997.0	-55058.0	-5694246.0
16	15	4	55	362	35.0	197124.0	-55882.0	-5693836.0
16	15	4	55	362	36.0	133631.0	-55216.0	-5695054.0
16	15	4	55	363	37.0	52939.0	-55024.0	-5695114.0
16	15	4	55	363	38.0	-34588.0	-54500.0	-5694312.0
16	15	4	55	417	39.0	-125319.0	-53964.0	-5693943.0
16	15	4	55	417	40.0	-217579.0	-52671.0	-5695242.0
16	15	4	55	417	41.0	-305997.0	-49709.0	-5695176.0
16	15	4	55	418	42.0	-374477.0	-48822.0	-5694399.0
16	15	4	55	418	43.0	-423712.0	-47803.0	-5694200.0
16	15	4	55	418	44.0	-449363.0	-46899.0	-5695447.0
16	15	4	55	419	45.0	-444829.0	-46542.0	-5695162.0
16	15	4	55	419	46.0	-428645.0	-45500.0	-5694382.0
16	15	4	55	419	47.0	-407148.0	-44311.0	-5693787.0
16	15	4	55	420	48.0	-377112.0	-43054.0	-5694906.0
16	15	4	55	420	49.0	-350537.0	-42002.0	-5695194.0
16	15	4	55	420	50.0	-316612.0	-41013.0	-5694498.0
16	15	4	55	420	51.0	-264296.0	-40524.0	-5693805.0
16	15	4	55	420	52.0	-188053.0	-39453.0	-5694854.0
16	15	4	55	421	53.0	-97954.0	-37923.0	-5695428.0
16	15	4	55	421	55.0	56605.0	-35664.0	-5693926.0
16	15	4	55	421	56.0	108402.0	-35467.0	-5694371.0
16	15	4	55	422	57.0	130139.0	-36374.0	-5695283.0
16	15	4	55	422	58.0	121151.0	-35787.0	-5694706.0
16	15	4	55	422	59.0	73075.0	-35016.0	-5693913.0
16	15	4	55	422	60.0	11014.0	-34162.0	-5694251.0
16	15	4	55	423	61.0	-32135.0	-33609.0	-5694992.0
16	15	4	55	423	62.0	-50851.0	-32871.0	-5694408.0
16	15	4	55	423	63.0	-58027.0	-30978.0	-5693637.0
16	15	4	55	424	64.0	-53854.0	-28212.0	-5694557.0
16	15	4	55	424	65.0	-35636.0	-27431.0	-5695247.0
16	15	4	55	424	66.0	-22175.0	-26686.0	-5694588.0
16	15	4	55	425	67.0	-27201.0	-25802.0	-5693737.0
16	15	4	55	425	68.0	-30749.0	-25080.0	-5693812.0
16	15	4	55	425	69.0	-37816.0	-24449.0	-5695030.0
16	15	4	55	425	70.0	-44055.0	-23625.0	-5694597.0
16	15	4	55	426	71.0	-35191.0	-23207.0	-5693837.0
16	15	4	55	426	72.0	-5443.0	-23014.0	-5693910.0
16	15	4	55	489	73.0	34023.0	-22477.0	-5695175.0
16	15	4	55	489	74.0	66689.0	-22109.0	-5694715.0
16	15	4	55	490	75.0	86651.0	-21899.0	-5693939.0
16	15	4	55	490	76.0	93247.0	-21261.0	-5693862.0
16	15	4	55	490	78.0	54159.0	-21147.0	-5694739.0
16	15	4	55	491	79.0	29847.0	-22426.0	-5694022.0
16	15	4	55	491	80.0	9457.0	-22716.0	-5693850.0
16	15	4	55	491	81.0	-3845.0	-22955.0	-5695328.0
16	15	4	55	492	82.0	-19399.0	-22903.0	-5694987.0
16	15	4	55	492	83.0	-24459.0	-23437.0	-5694263.0
16	15	4	55	492	84.0	-23311.0	-23638.0	-5693784.0
16	15	4	55	492	85.0	-16262.0	-23222.0	-5694718.0
16	15	4	55	493	86.0	-4588.0	-21479.0	-5694405.0
16	15	4	55	493	87.0	-7196.0	-21114.0	-5693680.0
16	15	4	55	493	88.0	-30039.0	-20857.0	-5694122.0
16	15	4	55	494	89.0	-45531.0	-21104.0	-5695331.0
16	15	4	55	494	90.0	-31841.0	-21332.0	-5694648.0
16	15	4	55	494	91.0	9272.0	-21186.0	-5693964.0
16	15	4	55	494	92.0	62106.0	-21425.0	-5694289.0
16	15	4	55	495	93.0	115002.0	-21759.0	-5695268.0
16	15	4	55	495	94.0	168261.0	-22627.0	-5694577.0
16	15	4	55	495	95.0	226966.0	-23112.0	-5693882.0
16	15	4	55	496	96.0	282495.0	-22988.0	-5693991.0
16	15	4	55	496	97.0	328459.0	-23408.0	-5695257.0
16	15	4	55	496	98.0	362321.0	-23487.0	-5694660.0
16	15	4	55	496	100.0	358750.0	-24492.0	-5693571.0
16	15	4	55	497	101.0	325573.0	-25984.0	-5695009.0
16	15	4	55	497	102.0	315218.0	-27462.0	-5694778.0
16	15	4	55	497	103.0	349274.0	-27813.0	-5694046.0
16	15	4	55	498	104.0	389112.0	-27954.0	-5693618.0
16	15	4	55	498	105.0	376756.0	-28019.0	-5694917.0
16	15	4	55	498	106.0	268709.0	-28129.0	-5694790.0
16	15	4	55	569	107.0	80464.0	-28449.0	-5694067.0
16	15	4	55	569	108.0	-155089.0	-27576.0	-5693919.0
16	15	4	55	569	109.0	-401072.0	-26777.0	-5695288.0
16	15	4	55	570	110.0	-613959.0	-26603.0	-5694881.0
16	15	4	55	570	111.0	-727110.0	-26308.0	-5694126.0
16	15	4	55	570	112.0	-704008.0	-26564.0	-5694087.0
16	15	4	55	571	113.0	-549810.0	-26059.0	-5695631.0
16	15	4	55	571	114.0	-271886.0	-25605.0	-5695309.0
16	15	4	55	571	115.0	67727.0	-25196.0	-5694513.0
16	15	4	55	571	116.0	450434.0	-24821.0	-5693967.0
16	15	4	55	572	117.0	814806.0	-24592.0	-5695056.0
16	15	4	55	572	118.0	1021705.0	-24436.0	-5695553.0
16	15	4	55	572	119.0	962244.0	-24307.0	-5694767.0
16	15	4	55	573	120.0	649846.0	-24298.0	-5694071.0
16	15	4	55	573	121.0	292230.0	-23935.0	-5694663.0
16	15	4	55	573	123.0	-23928.0	-24292.0	-5694766.0
16	15	4	55	574	145.0	-541330.0	-17340.0	-5694846.0
16	15	4	55	574	146.0	-599214.0	-18453.0	-5695988.0
16	15	4	55	574	147.0	-688117.0	-19482.0	-5695320.0
16	15	4	55	574	148.0	-749796.0	-18834.0	-5694535.0
16	15	4	55	575	149.0	-668944.0	-18588.0	-5694381.0
16	15	4	55	575	150.0	-402202.0	-18159.0	-5695869.0
16	15	4	55	650	151.0	-39057.0	-17822.0	-5695682.0
16	15	4	55	650	152.0	307436.0	-17047.0	-5694918.0
16	15	4	55	650	153.0	574867.0	-15002.0	-5694844.0
16	15	4	55	651	154.0	724741.0	-13304.0	-5696337.0
16	15	4	55	651	155.0	763124.0	-12798.0	-5696122.0
16	15	4	55	651	156.0	719973.0	-12428.0	-5695332.0
16	15	4	55	652	157.0	641471.0	-12244.0	-5695155.0
16	15	4	55	652	158.0	525262.0	-11607.0	-5696467.0
16	15	4	55	652	159.0	385230.0	-10992.0	-5696163.0
16	15	4	55	653	160.0	269949.0	-10679.0	-5695323.0
16	15	4	55	653	161.0	178254.0	-10892.0	-5695163.0
16	15	4	55	653	162.0	83337.0	-10796.0	-5696455.0
16	15	4	55	654	163.0	-3942.0	-10368.0	-5696194.0
16	15	4	55	654	164.0	-102658.0	-10131.0	-5695366.0
16	15	4	55	654	165.0	-220066.0	-9685.0	-5694966.0
16	15	4	55	654	168.0	-475574.0	-8768.0	-5695509.0
16	15	4	55	655	169.0	-519050.0	-10488.0	-5695071.0
16	15	4	55	655	170.0	-568014.0	-10836.0	-5696143.0
16	15	4	55	655	171.0	-600159.0	-10582.0	-5696340.0
16	15	4	55	656	172.0	-588462.0	-10067.0	-5695533.0
16	15	4	55	656	173.0	-549159.0	-9644.0	-5695233.0
16	15	4	55	656	174.0	-496614.0	-9494.0	-5696445.0
16	15	4	55	656	175.0	-415074.0	-8077.0	-5696393.0
16	15	4	55	657	176.0	-296110.0	-5931.0	-5695612.0
16	15	4	55	657	177.0	-138706.0	-5434.0	-5695099.0
16	15	4	55	657	178.0	26701.0	-4619.0	-5696070.0
16	15	4	55	658	179.0	153347.0	-4187.0	-5696311.0
16	15	4	55	658	180.0	235099.0	-3988.0	-5695508.0
16	15	4	55	658	181.0	297247.0	-3205.0	-5694796.0
16	15	4	55	658	182.0	342913.0	-3614.0	-5695497.0
16	15	4	55	658	183.0	351663.0	-2988.0	-5696344.0
16	15	4	55	659	184.0	321426.0	-2588.0	-5695659.0
16	15	4	55	728	185.0	276655.0	-2210.0	-5694891.0
16	15	4	55	728	186.0	238545.0	-1604.0	-5695366.0
16	15	4	55	728	187.0	195356.0	-1475.0	-5696422.0
16	15	4	55	729	188.0	149603.0	-1118.0	-5695781.0
16	15	4	55	729	190.0	-8562.0	-836.0	-5695304.0
16	15	4	55	729	191.0	-95931.0	-1930.0	-5696419.0
16	15	4	55	730	192.0	-165775.0	-2786.0	-5695831.0
16	15	4	55	730	193.0	-213462.0	-2737.0	-5695029.0
16	15	4	55	730	194.0	-253771.0	-2229.0	-5694961.0
16	15	4	55	730	195.0	-265319.0	-1310.0	-5696196.0
16	15	4	55	730	196.0	-243608.0	-175.0	-5695872.0
16	15	4	55	731	197.0	-205227.0	676.0	-5695059.0
16	15	4	55	731	198.0	-164618.0	3256.0	-5694752.0
16	15	4	55	731	199.0	-126895.0	4816.0	-5695970.0
16	15	4	55	732	200.0	-98868.0	5903.0	-5695931.0
16	15	4	55	732	201.0	-106594.0	7398.0	-5695109.0
16	15	4	55	732	202.0	-138274.0	8942.0	-5694788.0
16	15	4	55	732	203.0	-192204.0	10810.0	-5696023.0
16	15	4	55	733	204.0	-238376.0	12822.0	-5695995.0
16	15	4	55	733	205.0	-272350.0	14793.0	-5695164.0
16	15	4	55	733	206.0	-298338.0	16685.0	-5694912.0
16	15	4	55	734	207.0	-299067.0	19306.0	-5696127.0
16	15	4	55	734	208.0	-292972.0	22148.0	-5695986.0
16	15	4	55	734	209.0	-266937.0	24852.0	-5695163.0
16	15	4	55	734	210.0	-227967.0	26853.0	-5694614.0
16	15	4	55	735	212.0	-117694.0	32983.0	-5695873.0
16	15	4	55	735	213.0	-31869.0	36339.0	-5695089.0
16	15	4	55	735	214.0	57688.0	38001.0	-5694439.0
16	15	4	55	736	215.0	141717.0	41036.0	-5695124.0
16	15	4	55	736	216.0	222778.0	44980.0	-5695734.0
16	15	4	55	736	217.0	264606.0	48619.0	-5695007.0
16	15	4	55	736	218.0	268324.0	51894.0	-5694387.0
16	15	4	55	812	219.0	261406.0	55563.0	-5695506.0
16	15	4	55	813	220.0	262968.0	59603.0	-5696027.0
16	15	4	55	813	221.0	250929.0	65549.0	-5695268.0
16	15	4	55	813	222.0	212910.0	69724.0	-5694647.0
16	15	4	55	814	223.0	155784.0	73829.0	-5695700.0
16	15	4	55	814	224.0	82193.0	77606.0	-5696144.0
16	15	4	55	814	225.0	33646.0	80648.0	-5695390.0
16	15	4	55	814	226.0	25389.0	84076.0	-5694667.0
16	15	4	55	815	227.0	11266.0	86713.0	-5695257.0
16	15	4	55	815	228.0	-20621.0	89730.0	-5695951.0
16	15	4	55	815	229.0	-40997.0	92740.0	-5695291.0
16	15	4	55	816	230.0	-33320.0	95777.0	-5694479.0
16	15	4	55	816	231.0	932.0	98331.0	-5694773.0
16	15	4	55	816	232.0	39005.0	100440.0	-5695784.0
16	15	4	55	816	233.0	34699.0	102158.0	-5695246.0
16	15	4	55	817	235.0	-102092.0	106229.0	-5695322.0
16	15	4	55	817	236.0	-187819.0	106028.0	-5695949.0
16	15	4	55	817	237.0	-311190.0	106263.0	-5695271.0
16	15	4	55	818	238.0	-510819.0	107095.0	-5694452.0
16	15	4	55	818	239.0	-815267.0	107395.0	-5695077.0
16	15	4	55	818	240.0	-1258796.0	108081.0	-5695957.0
16	15	4	55	818	241.0	-1936116.0	108408.0	-5695279.0
16	15	4	55	819	242.0	-3312441.0	108690.0	-5694303.0
16	15	4	55	819	243.0	-5160455.0	111142.0	-5693852.0
16	15	4	55	819	244.0	-5145075.0	112349.0	-5695028.0
16	15	4	55	819	245.0	-3023851.0	111555.0	-5695077.0
16	15	4	55	820	246.0	-235829.0	110212.0	-5694554.0
16	15	4	55	820	247.0	2677865.0	109361.0	-5694471.0
16	15	4	55	820	248.0	4566669.0	107810.0	-5695844.0
16	15	4	55	821	249.0	4448981.0	106288.0	-5695917.0
16	15	4	55	821	250.0	3481471.0	105556.0	-5695049.0
16	15	4	55	821	251.0	2217679.0	103977.0	-5695012.0
16	15	4	55	821	252.0	1076449.0	101436.0	-5696195.0
16	15	4	55	822	253.0	458511.0	99223.0	-5695717.0
16	15	4	55	822	254.0	113813.0	96625.0	-5694843.0
16	15	4	55	822	255.0	29311.0	93746.0	-5694892.0
16	15	4	55	822	1.0	524156.0	88145.0	-5695786.0
16	15	4	55	823	2.0	696941.0	84172.0	-5695002.0
16	15	4	55	823	3.0	801888.0	78557.0	-5694558.0
16	15	4	55	823	4.0	838711.0	74840.0	-5695836.0
16	15	4	55	824	5.0	768988.0	71659.0	-5695863.0
16	15	4	55	824	6.0	581977.0	68327.0	-5695105.0
16	15	4	55	824	7.0	329744.0	64934.0	-5694564.0
16	15	4	55	895	8.0	41550.0	61443.0	-5695775.0
16	15	4	55	895	9.0	-120816.0	58424.0	-5695922.0
16	15	4	55	896	10.0	-26656.0	56887.0	-5695205.0
16	15	4	55	896	11.0	227814.0	53686.0	-5694710.0
16	15	4	55	896	12.0	453573.0	50042.0	-5695867.0
16	15	4	55	897	13.0	581796.0	47331.0	-5695974.0
16	15	4	55	897	14.0	627073.0	43574.0	-5695253.0
16	15	4	55	897	15.0	639403.0	40159.0	-5694851.0
16	15	4	55	897	16.0	640676.0	36949.0	-5696229.0
16	15	4	55	898	17.0	613829.0	33209.0	-5696127.0
16	15	4	55	898	18.0	572197.0	29821.0	-5695406.0
16	15	4	55	898	19.0	529535.0	27108.0	-5694555.0
16	15	4	55	899	20.0	462362.0	23954.0	-5695051.0
16	15	4	55	899	21.0	372225.0	20472.0	-5695751.0
16	15	4	55	899	22.0	249812.0	17048.0	-5695134.0
16	15	4	55	899	24.0	6085.0	11229.0	-5695144.0
16	15	4	55	900	25.0	-37422.0	6193.0	-5695727.0
16	15	4	55	900	26.0	-62947.0	1998.0	-5695072.0
16	15	4	55	900	27.0	-75241.0	-593.0	-5694351.0
16	15	4	55	901	28.0	-78494.0	-3546.0	-5695159.0
16	15	4	55	901	29.0	-62076.0	-6217.0	-5695724.0
16	15	4	55	901	30.0	-14216.0	-9137.0	-5695076.0
16	15	4	55	901	31.0	53549.0	-11958.0	-5694366.0
16	15	4	55	902	32.0	83915.0	-12496.0	-5695276.0
16	15	4	55	902	33.0	77533.0	-14444.0	-5695775.0
16	15	4	55	979	34.0	58721.0	-16924.0	-5695101.0
16	15	4	55	980	35.0	18613.0	-18998.0	-5694294.0
16	15	4	55	980	36.0	-18122.0	-22014.0	-5694735.0
16	15	4	56	70	37.0	-55827.0	-24311.0	-5695827.0
16	15	4	56	71	38.0	-103817.0	-26459.0	-5695237.0
16	15	4	56	71	39.0	-155479.0	-28611.0	-5694471.0
16	15	4	56	72	40.0	-172996.0	-30602.0	-5694492.0
16	15	4	56	72	41.0	-160581.0	-32457.0	-5695750.0
16	15	4	56	72	42.0	-142797.0	-34152.0	-5695277.0
16	15	4	56	72	43.0	-125189.0	-35561.0	-5694571.0
16	15	4	56	73	46.0	92548.0	-41061.0	-5695489.0
16	15	4	56	73	47.0	182465.0	-43490.0	-5694760.0
16	15	4	56	73	48.0	227703.0	-46549.0	-5694684.0
16	15	4	56	73	49.0	198736.0	-47677.0	-5695227.0
16	15	4	56	74	50.0	128647.0	-46991.0	-5694622.0
16	15	4	56	74	51.0	81186.0	-47929.0	-5694224.0
16	15	4	56	74	69.0	-93052.0	-46354.0	-5695474.0
16	15	4	56	75	91.0	19101.0	-25266.0	-5694552.0
16	15	4	56	75	114.0	278574.0	-20783.0	-5695303.0
16	15	4	56	75	115.0	330550.0	-22842.0	-5694496.0
16	15	4	56	75	116.0	377769.0	-23921.0	-5694214.0
16	15	4	56	76	117.0	447979.0	-24335.0	-5695624.0
16	15	4	56	76	118.0	555574.0	-24726.0	-5695459.0
16	15	4	56	76	119.0	676248.0	-24631.0	-5694703.0
16	15	4	56	76	120.0	756463.0	-24961.0	-5694122.0
16	15	4	56	77	121.0	759704.0	-24550.0	-5695382.0
16	15	4	56	77	122.0	707376.0	-23001.0	-5695716.0
16	15	4	56	77	123.0	635400.0	-22677.0	-5694979.0
16	15	4	56	78	124.0	549571.0	-22377.0	-5694518.0
16	15	4	56	78	125.0	439494.0	-22569.0	-5695806.0
16	15	4	56	78	126.0	349703.0	-23030.0	-5695781.0
16	15	4	56	78	127.0	311440.0	-23579.0	-5695043.0
16	15	4	56	79	128.0	326446.0	-23384.0	-5694486.0
16	15	4	56	79	129.0	341501.0	-23577.0	-5695629.0
16	15	4	56	79	130.0	328327.0	-24049.0	-5695688.0
16	15	4	56	79	131.0	209504.0	-24278.0	-5694965.0
16	15	4	56	162	132.0	-25274.0	-24652.0	-5694147.0
16	15	4	56	163	133.0	-328626.0	-24621.0	-5694841.0
16	15	4	56	163	134.0	-629427.0	-24488.0	-5695546.0
16	15	4	56	163	136.0	-1014077.0	-25119.0	-5694071.0
16	15	4	56	164	137.0	-977047.0	-25544.0	-5694730.0
16	15	4	56	164	138.0	-734107.0	-26701.0	-5695440.0
16	15	4	56	164	139.0	-348321.0	-26257.0	-5694858.0
16	15	4	56	165	140.0	73483.0	-26331.0	-5694155.0
16	15	4	56	165	141.0	384423.0	-25550.0	-5695007.0
16	15	4	56	165	142.0	586770.0	-24187.0	-5695874.0
16	15	4	56	165	143.0	676466.0	-23659.0	-5695261.0
16	15	4	56	166	144.0	654174.0	-23291.0	-5694469.0
16	15	4	56	166	145.0	569593.0	-23479.0	-5695087.0
16	15	4	56	166	146.0	339514.0	-23324.0	-5695998.0
16	15	4	56	166	147.0	-47551.0	-23356.0	-5695316.0
16	15	4	56	167	159.0	-163676.0	-20108.0	-5695572.0
16	15	4	56	167	160.0	-867586.0	-21853.0	-5694747.0
16	15	4	56	167	161.0	-1432240.0	-21935.0	-5694216.0
16	15	4	56	167	162.0	-1778616.0	-22184.0	-5695230.0
16	15	4	56	167	163.0	-2053261.0	-21722.0	-5694927.0
16	15	4	56	168	164.0	-2149938.0	-21266.0	-5694192.0
16	15	4	56	168	165.0	-1874333.0	-21224.0	-5693692.0
16	15	4	56	168	166.0	-1579804.0	-20752.0	-5695006.0
16	15	4	56	169	167.0	-1536329.0	-18696.0	-5694984.0
16	15	4	56	169	168.0	-1592001.0	-17775.0	-5694277.0
16	15	4	56	169	169.0	-1542711.0	-16755.0	-5693686.0
16	15	4	56	169	170.0	-1454354.0	-16335.0	-5694739.0
16	15	4	56	170	171.0	-1346429.0	-15739.0	-5694758.0
16	15	4	56	170	172.0	-1135211.0	-15646.0	-5694107.0
16	15	4	56	170	173.0	-895602.0	-14793.0	-5693797.0
16	15	4	56	171	174.0	-596456.0	-14429.0	-5695277.0
16	15	4	56	171	175.0	-231734.0	-14184.0	-5695084.0
16	15	4	56	171	176.0	131901.0	-13268.0	-5694414.0
16	15	4	56	172	177.0	428586.0	-13036.0	-5693993.0
16	15	4	56	172	178.0	661902.0	-12782.0	-5695356.0
16	15	4	56	172	179.0	813689.0	-12204.0	-5695187.0
16	15	4	56	172	181.0	695998.0	-11437.0	-5693798.0
16	15	4	56	173	182.0	526244.0	-12059.0	-5694489.0
16	15	4	56	173	183.0	347891.0	-13259.0	-5694494.0
16	15	4	56	173	184.0	139543.0	-13082.0	-5693798.0
16	15	4	56	174	185.0	-24709.0	-12902.0	-5694057.0
16	15	4	56	174	186.0	-89097.0	-12450.0	-5695302.0
16	15	4	56	174	187.0	-125789.0	-12229.0	-5694696.0
16	15	4	56	254	188.0	-164656.0	-11918.0	-5693995.0
16	15	4	56	255	189.0	-173264.0	-10629.0	-5694231.0
16	15	4	56	255	190.0	-177430.0	-8681.0	-5695441.0
16	15	4	56	255	191.0	-216596.0	-7813.0	-5694804.0
16	15	4	56	256	192.0	-278153.0	-7187.0	-5694099.0
16	15	4	56	256	193.0	-322217.0	-7195.0	-5694184.0
16	15	4	56	256	194.0	-329909.0	-7544.0	-5695329.0
16	15	4	56	256	195.0	-314479.0	-7249.0	-5694744.0
16	15	4	56	257	196.0	-241619.0	-6765.0	-5694007.0
16	15	4	56	257	197.0	-138059.0	-6457.0	-5694064.0
16	15	4	56	257	198.0	-9721.0	-6204.0	-5695286.0
16	15	4	56	257	199.0	67783.0	-5430.0	-5694844.0
16	15	4	56	258	200.0	95503.0	-4849.0	-5694084.0
16	15	4	56	258	201.0	123498.0	-4497.0	-5693999.0
16	15	4	56	258	202.0	123553.0	-4676.0	-5695292.0
16	15	4	56	259	204.0	39104.0	-4982.0	-5694168.0
16	15	4	56	259	205.0	16157.0	-6352.0	-5694224.0
16	15	4	56	259	206.0	21856.0	-6531.0	-5695518.0
16	15	4	56	259	207.0	43437.0	-6349.0	-5695088.0
16	15	4	56	260	208.0	23653.0	-6147.0	-5694271.0
16	15	4	56	260	209.0	-7108.0	-5599.0	-5694072.0
16	15	4	56	352	210.0	12359.0	-5379.0	-5695296.0
16	15	4	56	352	211.0	59743.0	-4686.0	-5694982.0
16	15	4	56	353	212.0	72620.0	-2399.0	-5694133.0
16	15	4	56	353	213.0	47551.0	-2039.0	-5693831.0
16	15	4	56	353	214.0	54434.0	-1735.0	-5695082.0
16	15	4	56	354	215.0	71978.0	-1726.0	-5695062.0
16	15	4	56	354	216.0	40713.0	-1221.0	-5694261.0
16	15	4	56	354	217.0	-15223.0	24.0	-5693743.0
16	15	4	56	354	218.0	-48852.0	273.0	-5694864.0
16	15	4	56	355	219.0	-30053.0	633.0	-5695464.0
16	15	4	56	355	220.0	9759.0	1615.0	-5694667.0
16	15	4	56	355	221.0	35932.0	2508.0	-5694067.0
16	15	4	56	355	222.0	36859.0	2938.0	-5694914.0
16	15	4	56	356	223.0	36009.0	2989.0	-5695494.0
16	15	4	56	356	224.0	56312.0	3438.0	-5694711.0
16	15	4	56	356	249.0	171268.0	67898.0	-5694432.0
16	15	4	56	357	250.0	182570.0	69495.0	-5694187.0
16	15	4	56	357	251.0	193226.0	72585.0	-5695317.0
16	15	4	56	357	252.0	211479.0	75808.0	-5695150.0
16	15	4	56	357	253.0	241735.0	79058.0	-5694356.0
16	15	4	56	358	254.0	321118.0	81868.0	-5694667.0
16	15	4	56	358	255.0	402883.0	85025.0	-5695618.0
16	15	4	56	358	0.0	464531.0	88834.0	-5695102.0
16	15	4	56	358	1.0	489288.0	93519.0	-5694281.0
16	15	4	56	359	2.0	487074.0	96166.0	-5694390.0
16	15	4	56	359	3.0	481099.0	98486.0	-5695627.0
16	15	4	56	359	4.0	456081.0	100243.0	-5695212.0
16	15	4	56	359	5.0	394149.0	102796.0	-5694397.0
16	15	4	56	360	6.0	283028.0	104403.0	-5694071.0
16	15	4	56	360	7.0	115283.0	106303.0	-5695376.0
16	15	4	56	360	8.0	-143711.0	108081.0	-5695333.0
16	15	4	56	361	9.0	-537518.0	108887.0	-5694484.0
16	15	4	56	361	10.0	-1149414.0	109314.0	-5694051.0
16	15	4	56	361	11.0	-2321741.0	110862.0	-5695082.0
16	15	4	56	362	12.0	-4290849.0	112121.0	-5694761.0
16	15	4	56	362	13.0	-4375424.0	113030.0	-5693947.0
16	15	4	56	362	15.0	741446.0	111568.0	-5695419.0
16	15	4	56	362	22.0	11914.0	104852.0	-5693572.0
16	15	4	56	363	23.0	-330152.0	102634.0	-5694829.0
16	15	4	56	363	24.0	-501374.0	98368.0	-5694574.0
16	15	4	56	363	25.0	-276167.0	94946.0	-5693851.0
16	15	4	56	364	26.0	-27655.0	92007.0	-5693634.0
16	15	4	56	364	27.0	-21941.0	89166.0	-5695037.0
16	15	4	56	364	28.0	2726.0	86278.0	-5694713.0
16	15	4	56	364	29.0	43340.0	83819.0	-5694022.0
16	15	4	56	365	30.0	-41020.0	82786.0	-5693823.0
16	15	4	56	365	31.0	-187596.0	78843.0	-5694957.0
16	15	4	56	446	32.0	-253493.0	74665.0	-5694518.0
16	15	4	56	447	33.0	-228306.0	72700.0	-5693849.0
16	15	4	56	447	34.0	-174701.0	70430.0	-5694515.0
16	15	4	56	447	35.0	-209914.0	67361.0	-5695080.0
16	15	4	56	447	36.0	-236784.0	63888.0	-5694301.0
16	15	4	56	448	37.0	-176807.0	59784.0	-5693715.0
16	15	4	56	448	38.0	-75330.0	55856.0	-5694470.0
16	15	4	56	448	39.0	31934.0	50639.0	-5695219.0
16	15	4	56	448	40.0	-23511.0	46554.0	-5694431.0
16	15	4	56	449	41.0	-87030.0	43443.0	-5693785.0
16	15	4	56	449	42.0	210904.0	41719.0	-5694147.0
16	15	4	56	449	43.0	587934.0	38681.0	-5695198.0
16	15	4	56	449	44.0	699133.0	35351.0	-5694568.0
16	15	4	56	450	45.0	607879.0	31772.0	-5693936.0
16	15	4	56	450	46.0	506471.0	26996.0	-5694664.0
16	15	4	56	450	47.0	469956.0	22316.0	-5695409.0
16	15	4	56	451	48.0	494487.0	19724.0	-5694641.0
16	15	4	56	451	49.0	519753.0	18014.0	-5694002.0
16	15	4	56	451	50.0	490764.0	15452.0	-5694581.0
16	15	4	56	451	51.0	381974.0	12115.0	-5695331.0
16	15	4	56	452	52.0	262664.0	8162.0	-5694577.0
16	15	4	56	452	53.0	179798.0	4221.0	-5693819.0
16	15	4	56	452	54.0	119803.0	-796.0	-5694001.0
16	15	4	56	453	55.0	60384.0	-4469.0	-5695311.0
16	15	4	56	453	56.0	-28011.0	-6092.0	-5694782.0
16	15	4	56	453	57.0	-151289.0	-8172.0	-5694057.0
16	15	4	56	453	58.0	-283857.0	-11136.0	-5694468.0
16	15	4	56	454	59.0	-396809.0	-14036.0	-5695747.0
16	15	4	56	454	60.0	-464680.0	-17289.0	-5695177.0
16	15	4	56	454	61.0	-477212.0	-21294.0	-5694406.0
16	15	4	56	454	62.0	-466409.0	-25056.0	-5694629.0
16	15	4	56	455	63.0	-439208.0	-27216.0	-5695936.0
16	15	4	56	455	64.0	-415149.0	-27976.0	-5695446.0
16	15	4	56	455	65.0	-375001.0	-30179.0	-5694666.0
16	15	4	56	455	66.0	-322272.0	-32521.0	-5694653.0
16	15	4	56	456	67.0	-281944.0	-35087.0	-5695968.0
16	15	4	56	456	68.0	-254423.0	-37591.0	-5695656.0
16	15	4	56	456	69.0	-221708.0	-41524.0	-5694834.0
16	15	4	56	456	70.0	-191397.0	-43564.0	-5694415.0
16	15	4	56	457	71.0	-170641.0	-43602.0	-5695646.0
16	15	4	56	457	72.0	-133713.0	-44731.0	-5695903.0
16	15	4	56	457	73.0	-79529.0	-46548.0	-5695079.0
16	15	4	56	458	74.0	-34093.0	-47694.0	-5694752.0
16	15	4	56	458	75.0	18340.0	-49112.0	-5695915.0
16	15	4	56	458	76.0	63920.0	-51866.0	-5695862.0
16	15	4	56	539	77.0	71204.0	-54356.0	-5695042.0
16	15	4	56	539	78.0	62571.0	-54777.0	-5694813.0
16	15	4	56	540	79.0	78880.0	-53618.0	-5696046.0
16	15	4	56	540	80.0	86655.0	-53714.0	-5695922.0
16	15	4	56	540	81.0	88178.0	-54272.0	-5695087.0
16	15	4	56	541	82.0	93536.0	-54728.0	-5694538.0
16	15	4	56	541	83.0	80261.0	-55563.0	-5695532.0
16	15	4	56	541	84.0	81173.0	-57324.0	-5695800.0
16	15	4	56	542	85.0	80354.0	-57582.0	-5695012.0
16	15	4	56	542	86.0	19071.0	-55669.0	-5694462.0
16	15	4	56	542	87.0	-59874.0	-55085.0	-5695449.0
16	15	4	56	543	88.0	-122179.0	-54288.0	-5695686.0
16	15	4	56	543	89.0	-148202.0	-53750.0	-5694886.0
16	15	4	56	543	90.0	-150019.0	-53779.0	-5694534.0
16	15	4	56	543	91.0	-121840.0	-54374.0	-5695778.0
16	15	4	56	544	92.0	-76631.0	-54719.0	-5695719.0
16	15	4	56	544	93.0	-39373.0	-54082.0	-5694920.0
16	15	4	56	544	94.0	-37401.0	-51488.0	-5694479.0
16	15	4	56	545	95.0	-65041.0	-50009.0	-5695825.0
16	15	4	56	545	96.0	-95357.0	-48862.0	-5695885.0
16	15	4	56	545	97.0	-107032.0	-47799.0	-5695124.0
16	15	4	56	545	98.0	-129101.0	-46735.0	-5694496.0
16	15	4	56	546	99.0	-137557.0	-47712.0	-5695464.0
16	15	4	56	546	100.0	-78927.0	-46960.0	-5695809.0
16	15	4	56	546	101.0	2832.0	-44908.0	-5695104.0
16	15	4	56	547	102.0	41436.0	-42936.0	-5694356.0
16	15	4	56	547	103.0	53455.0	-41162.0	-5695221.0
16	15	4	56	547	104.0	35203.0	-39672.0	-5695869.0
16	15	4	56	547	105.0	-12767.0	-38186.0	-5695189.0
16	15	4	56	548	106.0	-100971.0	-38027.0	-5694555.0
16	15	4	56	548	107.0	-179802.0	-37761.0	-5695694.0
16	15	4	56	548	108.0	-205943.0	-36411.0	-5695936.0
16	15	4	56	548	109.0	-172265.0	-33949.0	-5695219.0
16	15	4	56	549	110.0	-127191.0	-31920.0	-5694464.0
16	15	4	56	549	111.0	-83632.0	-30279.0	-5695156.0
16	15	4	56	549	112.0	-85060.0	-28801.0	-5695837.0
16	15	4	56	550	113.0	-52272.0	-28052.0	-5695207.0
16	15	4	56	550	114.0	-122959.0	-28626.0	-5694375.0
16	15	4	56	550	115.0	-150722.0	-27911.0	-5694694.0
16	15	4	56	551	116.0	58720.0	-25132.0	-5695736.0
16	15	4	56	551	117.0	412613.0	-23810.0	-5695244.0
16	15	4	56	551	118.0	672659.0	-23194.0	-5694459.0
16	15	4	56	552	119.0	727456.0	-21821.0	-5694615.0
16	15	4	56	552	120.0	602260.0	-21094.0	-5695673.0
16	15	4	56	552	121.0	436454.0	-21786.0	-5695171.0
16	15	4	56	552	122.0	304699.0	-22087.0	-5694374.0
16	15	4	56	553	123.0	245763.0	-20736.0	-5694784.0
16	15	4	56	553	124.0	227358.0	-17908.0	-5696001.0
16	15	4	56	553	125.0	223112.0	-16765.0	-5695476.0
16	15	4	56	554	126.0	223838.0	-16493.0	-5694677.0
16	15	4	56	554	127.0	208580.0	-15649.0	-5695040.0
16	15	4	56	554	128.0	181544.0	-16595.0	-5696232.0
16	15	4	56	642	129.0	133528.0	-18276.0	-5695686.0
16	15	4	56	643	130.0	32658.0	-18191.0	-5694882.0
16	15	4	56	643	131.0	-95972.0	-16208.0	-5694627.0
16	15	4	56	643	132.0	-213877.0	-15744.0	-5696047.0
16	15	4	56	644	133.0	-314496.0	-15439.0	-5695741.0
16	15	4	56	644	134.0	-368063.0	-15259.0	-5694986.0
16	15	4	56	644	135.0	-397603.0	-14842.0	-5694524.0
16	15	4	56	644	136.0	-428086.0	-16477.0	-5695786.0
16	15	4	56	645	137.0	-442456.0	-17247.0	-5695734.0
16	15	4	56	645	138.0	-429493.0	-16556.0	-5695019.0
16	15	4	56	645	139.0	-378959.0	-14653.0	-5694882.0
16	15	4	56	646	140.0	-308094.0	-14326.0	-5695539.0
16	15	4	56	646	141.0	-249212.0	-14442.0	-5694945.0
16	15	4	56	646	142.0	-188851.0	-13902.0	-5694274.0
16	15	4	56	646	143.0	-132891.0	-14832.0	-5695167.0
16	15	4	56	647	144.0	-97982.0	-17311.0	-5695944.0
16	15	4	56	647	145.0	-70191.0	-17176.0	-5695211.0
16	15	4	56	647	146.0	-93042.0	-15689.0	-5694466.0
16	15	4	56	647	147.0	-158300.0	-15387.0	-5694675.0
16	15	4	56	648	148.0	-265605.0	-15324.0	-5695837.0
16	15	4	56	648	149.0	-403056.0	-15642.0	-5695239.0
16	15	4	56	648	150.0	-528972.0	-16032.0	-5694536.0
16	15	4	56	649	151.0	-617157.0	-18561.0	-5694813.0
16	15	4	56	649	152.0	-581805.0	-19584.0	-5695706.0
16	15	4	56	649	153.0	-416757.0	-19205.0	-5695004.0
16	15	4	56	649	154.0	-184517.0	-17522.0	-5694438.0
16	15	4	56	650	155.0	72431.0	-17728.0	-5695336.0
16	15	4	56	650	156.0	283408.0	-18574.0	-5695956.0
16	15	4	56	650	157.0	388976.0	-18891.0	-5695186.0
16	15	4	56	650	158.0	359451.0	-19489.0	-5694650.0
16	15	4	56	650	159.0	319738.0	-21421.0	-5695726.0
16	15	4	56	651	160.0	333848.0	-21737.0	-5696294.0
16	15	4	56	651	161.0	361209.0	-20189.0	-5695489.0
16	15	4	56	651	162.0	352339.0	-20294.0	-5694774.0
16	15	4	56	652	163.0	396859.0	-20888.0	-5694859.0
16	15	4	56	652	164.0	550016.0	-20779.0	-5696119.0
16	15	4	56	652	165.0	820108.0	-20859.0	-5695567.0
16	15	4	56	652	166.0	1187378.0	-22770.0	-5694872.0
16	15	4	56	653	167.0	1509068.0	-23906.0	-5694822.0
16	15	4	56	653	168.0	1685663.0	-22909.0	-5696202.0
16	15	4	56	654	169.0	1750387.0	-21192.0	-5695824.0
16	15	4	56	654	170.0	1578206.0	-21349.0	-5695062.0
16	15	4	56	655	171.0	1169711.0	-21014.0	-5695084.0
16	15	4	56	655	172.0	498431.0	-20663.0	-5696299.0
16	15	4	56	656	173.0	-37693.0	-21792.0	-5695782.0
16	15	4	56	656	174.0	-273696.0	-23457.0	-5695028.0
16	15	4	56	656	175.0	-552950.0	-21799.0	-5694867.0
16	15	4	56	656	176.0	-701831.0	-20864.0	-5695999.0
16	15	4	56	657	177.0	-623989.0	-21015.0	-5695573.0
16	15	4	56	657	178.0	-554004.0	-21029.0	-5694775.0
16	15	4	56	657	179.0	-552888.0	-21242.0	-5694456.0
16	15	4	56	658	180.0	-567648.0	-21340.0	-5695691.0
16	15	4	56	658	181.0	-623865.0	-22314.0	-5695508.0
16	15	4	56	658	182.0	-735893.0	-22884.0	-5694694.0
16	15	4	56	755	183.0	-911459.0	-23317.0	-5694522.0
16	15	4	56	755	184.0	-1069822.0	-22527.0	-5695876.0
16	15	4	56	755	185.0	-1104878.0	-20598.0	-5695607.0
16	15	4	56	756	186.0	-1104358.0	-19497.0	-5694783.0
16	15	4	56	756	187.0	-1088698.0	-19436.0	-5694839.0
16	15	4	56	757	188.0	-933393.0	-19611.0	-5696334.0
16	15	4	56	757	189.0	-602103.0	-20769.0	-5696041.0
16	15	4	56	757	190.0	-232891.0	-19219.0	-5695206.0
16	15	4	56	758	191.0	-1404.0	-17810.0	-5694872.0
16	15	4	56	758	192.0	87401.0	-17622.0	-5696297.0
16	15	4	56	758	193.0	147101.0	-17176.0	-5696488.0
16	15	4	56	759	194.0	162473.0	-16842.0	-5695689.0
16	15	4	56	759	195.0	161767.0	-16871.0	-5695031.0
16	15	4	56	759	196.0	134035.0	-18476.0	-5695592.0
16	15	4	56	759	197.0	40993.0	-19192.0	-5696378.0
16	15	4	56	760	198.0	-82346.0	-18499.0	-5695577.0
16	15	4	56	760	199.0	-240365.0	-16388.0	-5694880.0
16	15	4	56	760	200.0	-351039.0	-15194.0	-5695505.0
16	15	4	56	761	201.0	-398949.0	-14813.0	-5696352.0
16	15	4	56	761	202.0	-388658.0	-14639.0	-5695651.0
16	15	4	56	761	203.0	-319391.0	-14961.0	-5695085.0
16	15	4	56	762	204.0	-209712.0	-15846.0	-5695869.0
16	15	4	56	762	205.0	-85021.0	-15231.0	-5696382.0
16	15	4	56	762	206.0	1184.0	-13034.0	-5695608.0
16	15	4	56	763	207.0	48984.0	-12852.0	-5695001.0
16	15	4	56	763	208.0	61801.0	-12972.0	-5695882.0
16	15	4	56	763	209.0	64411.0	-12366.0	-5696461.0
16	15	4	56	764	210.0	96108.0	-12457.0	-5695667.0
16	15	4	56	764	211.0	120076.0	-13567.0	-5694906.0
16	15	4	56	764	212.0	129210.0	-14324.0	-5695392.0
16	15	4	56	765	213.0	143547.0	-13340.0	-5696466.0
16	15	4	56	765	214.0	115598.0	-11338.0	-5695840.0
16	15	4	56	765	215.0	59368.0	-10050.0	-5695076.0
16	15	4	56	766	216.0	1714.0	-10257.0	-5695254.0
16	15	4	56	766	217.0	-35728.0	-10085.0	-5696419.0
16	15	4	56	766	218.0	-64969.0	-10083.0	-5695915.0
16	15	4	56	767	219.0	-88457.0	-11327.0	-5695166.0
16	15	4	56	767	220.0	-99026.0	-10866.0	-5695482.0
16	15	4	56	767	221.0	-93097.0	-9563.0	-5696562.0
16	15	4	56	768	222.0	-91914.0	-9022.0	-5695982.0
16	15	4	56	768	223.0	-81108.0	-8386.0	-5695187.0
16	15	4	56	768	224.0	-21571.0	-8043.0	-5695347.0
16	15	4	56	768	225.0	48911.0	-7682.0	-5696479.0
16	15	4	56	769	226.0	103166.0	-7080.0	-5695997.0
16	15	4	56	769	227.0	156654.0	-6054.0	-5695157.0
16	15	4	56	769	228.0	200869.0	-5572.0	-5695096.0
16	15	4	56	770	229.0	223279.0	-5534.0	-5696602.0
16	15	4	56	770	230.0	212743.0	-5106.0	-5696421.0
16	15	4	56	771	231.0	171468.0	-4832.0	-5695565.0
16	15	4	56	772	232.0	125274.0	-4092.0	-5695189.0
16	15	4	56	773	233.0	62334.0	-4338.0	-5696237.0
16	15	4	56	774	234.0	-10597.0	-5445.0	-5696158.0
16	15	4	56	775	235.0	-48951.0	-5159.0	-5695353.0
16	15	4	56	776	236.0	-39432.0	-4656.0	-5695272.0
16	15	4	56	777	237.0	21040.0	-4173.0	-5696702.0
16	15	4	56	779	238.0	96531.0	-3767.0	-5696519.0
16	15	4	56	780	239.0	166908.0	-2786.0	-5695702.0
16	15	4	56	873	240.0	215489.0	-732.0	-5695500.0
16	15	4	56	873	241.0	241310.0	-53.0	-5696781.0
16	15	4	56	874	242.0	230028.0	1631.0	-5696629.0
16	15	4	56	874	243.0	186379.0	2728.0	-5695765.0
16	15	4	56	875	244.0	119544.0	3931.0	-5695326.0
16	15	4	56	875	245.0	54756.0	5339.0	-5696389.0
16	15	4	56	876	246.0	-1681.0	6025.0	-5696401.0
16	15	4	56	877	247.0	-76182.0	7153.0	-5695606.0
16	15	4	56	877	248.0	-163546.0	7623.0	-5695174.0
16	15	4	56	878	249.0	-203599.0	8067.0	-5696401.0
16	15	4	56	879	250.0	-172709.0	9883.0	-5696450.0
16	15	4	56	879	251.0	-100419.0	13067.0	-5695704.0
16	15	4	56	880	252.0	-34422.0	17261.0	-5695204.0
16	15	4	56	880	253.0	7428.0	19746.0	-5696434.0
16	15	4	56	881	254.0	-1963.0	22408.0	-5696625.0
16	15	4	56	882	255.0	-44688.0	24978.0	-5695888.0
16	15	4	56	883	0.0	-57641.0	26186.0	-5695348.0
16	15	4	56	883	1.0	-49214.0	28605.0	-5696459.0
16	15	4	56	884	2.0	-53873.0	33669.0	-5696737.0
16	15	4	56	885	3.0	-51989.0	37848.0	-5695958.0
16	15	4	56	886	4.0	-59937.0	41548.0	-5695196.0
16	15	4	56	887	5.0	-48996.0	44839.0	-5695970.0
16	15	4	56	888	6.0	-29538.0	48809.0	-5696811.0
16	15	4	56	889	7.0	2965.0	51307.0	-5696169.0
16	15	4	56	890	8.0	39276.0	53048.0	-5695397.0
16	15	4	56	891	9.0	55037.0	57075.0	-5695736.0
16	15	4	56	891	10.0	69795.0	61916.0	-5696827.0
16	15	4	56	892	11.0	64434.0	65468.0	-5696330.0
16	15	4	56	893	12.0	54866.0	69216.0	-5695591.0
16	15	4	56	893	13.0	54391.0	73305.0	-5696219.0
16	15	4	56	894	14.0	61837.0	76953.0	-5697118.0
16	15	4	56	895	15.0	64119.0	78546.0	-5696517.0
16	15	4	56	895	16.0	59696.0	81357.0	-5695710.0
16	15	4	56	896	17.0	49658.0	85813.0	-5696241.0
16	15	4	56	896	18.0	30916.0	89729.0	-5697261.0
16	15	4	56	897	19.0	21225.0	92029.0	-5696679.0
16	15	4	56	898	20.0	30663.0	94494.0	-5695840.0
16	15	4	56	898	21.0	33523.0	97058.0	-5695812.0
16	15	4	56	899	22.0	4611.0	99428.0	-5697125.0
16	15	4	56	899	23.0	-101191.0	101609.0	-5696799.0
16	15	4	56	900	24.0	-310499.0	103119.0	-5695942.0
16	15	4	56	901	25.0	-675867.0	104656.0	-5695601.0
16	15	4	56	901	26.0	-1300965.0	106424.0	-5696634.0
16	15	4	56	902	27.0	-2654891.0	108074.0	-5696292.0
16	15	4	56	902	28.0	-4039476.0	109346.0	-5695348.0
16	15	4	56	903	29.0	-2873025.0	109664.0	-5695390.0
16	15	4	56	903	30.0	-368320.0	107754.0	-5696786.0
16	15	4	56	904	31.0	1584609.0	107001.0	-5696612.0
16	15	4	56	904	32.0	3068364.0	106491.0	-5695964.0
16	15	4	56	905	33.0	3415787.0	105947.0	-5695656.0
16	15	4	56	905	34.0	2211317.0	105382.0	-5696999.0
16	15	4	56	905	35.0	1052534.0	104860.0	-5696849.0
16	15	4	56	906	36.0	462251.0	105679.0	-5696014.0
16	15	4	56	906	37.0	-71412.0	104481.0	-5695562.0
16	15	4	56	906	38.0	-369732.0	103504.0	-5696910.0
16	15	4	56	907	39.0	-466203.0	102471.0	-5696797.0
16	15	4	56	907	40.0	-270568.0	99866.0	-5696078.0
16	15	4	56	907	41.0	129992.0	98158.0	-5695521.0
16	15	4	56	907	42.0	271410.0	96493.0	-5696645.0
16	15	4	56	908	43.0	270251.0	94413.0	-5696934.0
16	15	4	56	908	44.0	319930.0	91446.0	-5696221.0
16	15	4	56	908	45.0	222464.0	86535.0	-5695559.0
16	15	4	56	908	46.0	18350.0	83303.0	-5696593.0
16	15	4	56	908	47.0	-118631.0	80979.0	-5696962.0
16	15	4	56	909	48.0	-153604.0	79789.0	-5696276.0
16	15	4	56	909	49.0	-165944.0	77661.0	-5695601.0
16	15	4	56	909	50.0	-190700.0	74376.0	-5696537.0
16	15	4	56	909	51.0	-196025.0	71446.0	-5696772.0
16	15	4	56	910	52.0	-137069.0	66698.0	-5696097.0
16	15	4	56	973	53.0	-77568.0	62193.0	-5695300.0
16	15	4	56	973	54.0	-156387.0	59387.0	-5695889.0
16	15	4	56	974	55.0	-410218.0	58041.0	-5696985.0
16	15	4	56	974	56.0	-625589.0	54875.0	-5696424.0
16	15	4	56	974	57.0	-433534.0	51484.0	-5695645.0
16	15	4	56	974	58.0	145876.0	48401.0	-5696139.0
16	15	4	56	974	59.0	600259.0	44613.0	-5697132.0
16	15	4	56	975	60.0	694250.0	38933.0	-5696585.0
16	15	4	56	975	61.0	627733.0	35183.0	-5695811.0
16	15	4	56	975	62.0	592854.0	33310.0	-5696403.0
16	15	4	56	975	63.0	613173.0	30782.0	-5697285.0
16	15	4	56	976	64.0	642010.0	27762.0	-5696666.0
16	15	4	56	976	65.0	669770.0	24838.0	-5695890.0
16	15	4	56	976	66.0	667085.0	21715.0	-5696147.0
16	15	4	56	976	67.0	631389.0	17089.0	-5697105.0
16	15	4	56	977	68.0	567358.0	11824.0	-5696496.0
16	15	4	56	977	69.0	475313.0	8683.0	-5695722.0
16	15	4	56	977	70.0	373867.0	7623.0	-5695527.0
16	15	4	56	977	71.0	272288.0	4578.0	-5696916.0
16	15	4	56	978	72.0	151426.0	1226.0	-5696629.0
16	15	4	56	978	73.0	22938.0	-1823.0	-5695887.0
16	15	4	56	978	74.0	-109162.0	-5124.0	-5695991.0
16	15	4	56	978	75.0	-225841.0	-9936.0	-5697212.0
16	15	4	56	979	76.0	-279894.0	-13577.0	-5696690.0
16	15	4	56	979	77.0	-283837.0	-16794.0	-5695971.0
16	15	4	56	979	78.0	-262588.0	-18028.0	-5695982.0
16	15	4	56	979	79.0	-217972.0	-20817.0	-5696680.0
16	15	4	56	980	80.0	-171519.0	-23996.0	-5696097.0
16	15	4	56	980	81.0	-132103.0	-26663.0	-5695974.0
16	15	4	56	980	82.0	-80104.0	-30358.0	-5697442.0
16	15	4	57	70	83.0	-15742.0	-34005.0	-5697169.0
16	15	4	57	70	84.0	44470.0	-35694.0	-5696376.0
16	15	4	57	70	85.0	108733.0	-36242.0	-5695819.0
16	15	4	57	70	86.0	175026.0	-38241.0	-5696914.0
16	15	4	57	71	87.0	230206.0	-39830.0	-5697436.0
16	15	4	57	71	88.0	282356.0	-41686.0	-5696663.0
16	15	4	57	71	89.0	336235.0	-43864.0	-5696001.0
16	15	4	57	72	90.0	397114.0	-47573.0	-5696420.0
16	15	4	57	72	91.0	425973.0	-49035.0	-5697486.0
16	15	4	57	72	92.0	431511.0	-48594.0	-5696841.0
16	15	4	57	72	93.0	414466.0	-48791.0	-5696181.0
16	15	4	57	72	94.0	360113.0	-49708.0	-5696848.0
16	15	4	57	73	95.0	300800.0	-50096.0	-5697732.0
16	15	4	57	73	96.0	284629.0	-50983.0	-5696980.0
16	15	4	57	73	97.0	294599.0	-53329.0	-5696301.0
16	15	4	57	73	98.0	277598.0	-55574.0	-5696566.0
16	15	4	57	73	99.0	249286.0	-55911.0	-5697764.0
16	15	4	57	73	100.0	219278.0	-54327.0	-5697102.0
16	15	4	57	74	101.0	191079.0	-53851.0	-5696394.0
16	15	4	57	74	102.0	161348.0	-53421.0	-5696533.0
16	15	4	57	74	103.0	108446.0	-53210.0	-5697558.0
16	15	4	57	74	104.0	41379.0	-54288.0	-5696924.0
16	15	4	57	74	105.0	-30060.0	-55754.0	-5696238.0
16	15	4	57	75	106.0	-61971.0	-55484.0	-5696211.0
16	15	4	57	75	107.0	-79702.0	-53709.0	-5697499.0
16	15	4	57	75	108.0	-106282.0	-52360.0	-5697024.0
16	15	4	57	75	109.0	-92289.0	-51904.0	-5696344.0
16	15	4	57	75	110.0	-62678.0	-51177.0	-5696528.0
16	15	4	57	76	111.0	-38388.0	-49672.0	-5697574.0
16	15	4	57	76	112.0	-62983.0	-50092.0	-5696951.0
16	15	4	57	76	113.0	-81367.0	-50707.0	-5696240.0
16	15	4	57	76	114.0	-69017.0	-49272.0	-5696320.0
16	15	4	57	76	115.0	-69542.0	-46427.0	-5697445.0
16	15	4	57	77	116.0	-74144.0	-44804.0	-5696909.0
16	15	4	57	77	117.0	-100073.0	-43664.0	-5696159.0
16	15	4	57	77	118.0	-155969.0	-42473.0	-5695947.0
16	15	4	57	77	119.0	-217321.0	-41492.0	-5697169.0
16	15	4	57	78	120.0	-249951.0	-42522.0	-5696840.0
16	15	4	57	78	121.0	-290553.0	-41209.0	-5696046.0
16	15	4	57	78	122.0	-340629.0	-37576.0	-5695844.0
16	15	4	57	78	123.0	-371219.0	-35389.0	-5697115.0
16	15	4	57	79	124.0	-399614.0	-33972.0	-5696805.0
16	15	4	57	79	125.0	-414000.0	-32408.0	-5696021.0
16	15	4	57	79	126.0	-421361.0	-30951.0	-5695960.0
16	15	4	57	79	127.0	-434512.0	-31446.0	-5696927.0
16	15	4	57	80	128.0	-469171.0	-31540.0	-5696442.0
16	15	4	57	80	129.0	-468070.0	-30463.0	-5695642.0
16	15	4	57	80	130.0	-424926.0	-27552.0	-5695955.0
16	15	4	57	178	131.0	-359880.0	-25769.0	-5696972.0
16	15	4	57	178	132.0	-293591.0	-24665.0	-5696462.0
16	15	4	57	179	133.0	-254770.0	-23844.0	-5695625.0
16	15	4	57	179	134.0	-224651.0	-23706.0	-5695257.0
16	15	4	57	179	135.0	-208726.0	-24481.0	-5696466.0
16	15	4	57	179	136.0	-174923.0	-23576.0	-5696569.0
16	15	4	57	179	137.0	-135204.0	-20974.0	-5695769.0
16	15	4	57	180	138.0	-115020.0	-19349.0	-5695525.0
16	15	4	57	180	139.0	-103562.0	-18379.0	-5696786.0
16	15	4	57	180	140.0	-75631.0	-18054.0	-5696642.0
16	15	4	57	180	141.0	-12596.0	-17488.0	-5695811.0
16	15	4	57	181	142.0	53724.0	-17913.0	-5695609.0
16	15	4	57	181	143.0	83035.0	-18727.0	-5696570.0
16	15	4	57	181	144.0	58492.0	-17757.0	-5696252.0
16	15	4	57	181	145.0	12690.0	-15077.0	-5695425.0
16	15	4	57	182	146.0	-41566.0	-14166.0	-5695172.0
16	15	4	57	182	147.0	-100661.0	-14316.0	-5696477.0
16	15	4	57	182	148.0	-168160.0	-14132.0	-5696335.0
16	15	4	57	182	149.0	-219771.0	-14075.0	-5695528.0
16	15	4	57	183	150.0	-224602.0	-15666.0	-5694931.0
16	15	4	57	183	151.0	-173857.0	-15514.0	-5696042.0
16	15	4	57	183	152.0	-84462.0	-13950.0	-5696346.0
16	15	4	57	183	153.0	-1836.0	-13255.0	-5695571.0
16	15	4	57	184	154.0	81092.0	-13106.0	-5695089.0
16	15	4	57	184	155.0	204551.0	-13352.0	-5696480.0
16	15	4	57	184	156.0	335919.0	-13262.0	-5696760.0
16	15	4	57	184	157.0	439756.0	-14391.0	-5695987.0
16	15	4	57	185	158.0	531624.0	-15835.0	-5695341.0
16	15	4	57	185	159.0	566214.0	-15532.0	-5696389.0
16	15	4	57	185	160.0	520545.0	-13656.0	-5697011.0
16	15	4	57	185	161.0	444391.0	-13286.0	-5696301.0
16	15	4	57	186	162.0	364308.0	-13352.0	-5695537.0
16	15	4	57	186	163.0	284358.0	-13709.0	-5696076.0
16	15	4	57	186	164.0	221558.0	-14452.0	-5696891.0
16	15	4	57	186	165.0	202185.0	-16472.0	-5696275.0
16	15	4	57	187	166.0	280739.0	-16791.0	-5695497.0
16	15	4	57	187	167.0	415549.0	-15506.0	-5695630.0
16	15	4	57	187	168.0	525312.0	-15216.0	-5696875.0
16	15	4	57	187	169.0	502721.0	-15728.0	-5696486.0
16	15	4	57	188	170.0	255887.0	-15686.0	-5695660.0
16	15	4	57	188	171.0	-84897.0	-15652.0	-5695964.0
16	15	4	57	188	172.0	-309470.0	-17750.0	-5697023.0
16	15	4	57	188	173.0	-368567.0	-18905.0	-5696499.0
16	15	4	57	189	174.0	-306852.0	-18162.0	-5695674.0
16	15	4	57	189	175.0	-159191.0	-17189.0	-5695789.0
16	15	4	57	189	176.0	72793.0	-16882.0	-5696979.0
16	15	4	57	189	177.0	435645.0	-16936.0	-5696614.0
16	15	4	57	190	178.0	895102.0	-16952.0	-5695810.0
16	15	4	57	190	179.0	1294722.0	-17887.0	-5695546.0
16	15	4	57	190	180.0	1531193.0	-19559.0	-5696657.0
16	15	4	57	190	181.0	1549451.0	-20094.0	-5696467.0
16	15	4	57	191	182.0	1214478.0	-19194.0	-5695628.0
16	15	4	57	191	183.0	517179.0	-17114.0	-5695445.0
16	15	4	57	191	184.0	-9323.0	-16785.0	-5696659.0
16	15	4	57	192	185.0	-388892.0	-17041.0	-5696368.0
16	15	4	57	192	186.0	-618354.0	-17962.0	-5695531.0
16	15	4	57	192	187.0	-558814.0	-19689.0	-5695469.0
16	15	4	57	193	188.0	-292957.0	-20319.0	-5696594.0
16	15	4	57	193	189.0	-91536.0	-19206.0	-5696218.0
16	15	4	57	194	190.0	52229.0	-18347.0	-5695423.0
16	15	4	57	194	191.0	89433.0	-17993.0	-5695611.0
16	15	4	57	195	192.0	-41846.0	-17874.0	-5696702.0
16	15	4	57	196	193.0	-321157.0	-17507.0	-5696176.0
16	15	4	57	197	194.0	-651397.0	-18557.0	-5695312.0
16	15	4	57	197	195.0	-870517.0	-20064.0	-5695054.0
16	15	4	57	281	196.0	-940899.0	-19964.0	-5696442.0
16	15	4	57	281	197.0	-994933.0	-18661.0	-5696177.0
16	15	4	57	281	198.0	-1030952.0	-17258.0	-5695443.0
16	15	4	57	282	199.0	-898014.0	-16951.0	-5695287.0
16	15	4	57	282	200.0	-552139.0	-16844.0	-5696817.0
16	15	4	57	282	201.0	-169367.0	-17089.0	-5696577.0
16	15	4	57	282	202.0	63441.0	-18461.0	-5695886.0
16	15	4	57	283	203.0	135238.0	-18998.0	-5695564.0
16	15	4	57	283	204.0	163265.0	-17136.0	-5696804.0
16	15	4	57	283	205.0	148089.0	-16217.0	-5696545.0
16	15	4	57	283	206.0	77771.0	-15864.0	-5695824.0
16	15	4	57	284	207.0	-40569.0	-15037.0	-5695741.0
16	15	4	57	284	208.0	-175460.0	-14874.0	-5697309.0
16	15	4	57	284	209.0	-277634.0	-15553.0	-5696941.0
16	15	4	57	284	210.0	-353199.0	-17239.0	-5696223.0
16	15	4	57	285	211.0	-403032.0	-17147.0	-5695621.0
16	15	4	57	285	212.0	-424009.0	-15462.0	-5696812.0
16	15	4	57	285	213.0	-446493.0	-14471.0	-5696732.0
16	15	4	57	285	214.0	-446145.0	-14539.0	-5696021.0
16	15	4	57	286	215.0	-442797.0	-14162.0	-5695375.0
16	15	4	57	286	216.0	-439752.0	-14196.0	-5696441.0
16	15	4	57	286	217.0	-420553.0	-15288.0	-5696804.0
16	15	4	57	286	218.0	-385570.0	-15698.0	-5696085.0
16	15	4	57	287	219.0	-342349.0	-15113.0	-5695452.0
16	15	4	57	287	220.0	-288103.0	-13056.0	-5696041.0
16	15	4	57	287	221.0	-218586.0	-12705.0	-5695988.0
16	15	4	57	287	222.0	-154514.0	-12682.0	-5695364.0
16	15	4	57	288	223.0	-96629.0	-11767.0	-5695961.0
16	15	4	57	288	224.0	-42821.0	-11766.0	-5696771.0
16	15	4	57	288	225.0	2003.0	-12364.0	-5695985.0
16	15	4	57	288	226.0	123702.0	-10438.0	-5695272.0
16	15	4	57	289	227.0	173761.0	-10147.0	-5695230.0
16	15	4	57	289	228.0	80072.0	-10247.0	-5696488.0
16	15	4	57	289	229.0	-106059.0	-10107.0	-5695995.0
16	15	4	57	289	230.0	-225594.0	-9712.0	-5695247.0
16	15	4	57	290	231.0	-219289.0	-9517.0	-5695422.0
16	15	4	57	290	232.0	-138697.0	-10779.0	-5696702.0
16	15	4	57	290	233.0	-47517.0	-11325.0	-5696167.0
16	15	4	57	290	234.0	24262.0	-11097.0	-5695418.0
16	15	4	57	291	235.0	72405.0	-10950.0	-5695370.0
16	15	4	57	291	236.0	116980.0	-9664.0	-5696750.0
16	15	4	57	291	237.0	149806.0	-7706.0	-5696346.0
16	15	4	57	292	238.0	182302.0	-6982.0	-5695550.0
16	15	4	57	384	239.0	207049.0	-6953.0	-5695636.0
16	15	4	57	384	240.0	219431.0	-7306.0	-5697027.0
16	15	4	57	385	241.0	213979.0	-5555.0	-5696606.0
16	15	4	57	385	242.0	189782.0	-4363.0	-5695810.0
16	15	4	57	385	243.0	154439.0	-3804.0	-5695380.0
16	15	4	57	385	244.0	121598.0	-3471.0	-5696630.0
16	15	4	57	386	245.0	90924.0	-3524.0	-5696727.0
16	15	4	57	386	246.0	59209.0	-3286.0	-5695919.0
16	15	4	57	386	247.0	43598.0	-4282.0	-5695462.0
16	15	4	57	386	248.0	22214.0	-4578.0	-5696677.0
16	15	4	57	387	249.0	17693.0	-4124.0	-5696946.0
16	15	4	57	387	250.0	49441.0	-2016.0	-5696129.0
16	15	4	57	387	251.0	112296.0	-254.0	-5695688.0
16	15	4	57	387	252.0	189324.0	1089.0	-5696798.0
16	15	4	57	388	253.0	241335.0	1689.0	-5697004.0
16	15	4	57	388	254.0	268012.0	2183.0	-5696197.0
16	15	4	57	388	255.0	277655.0	2191.0	-5695667.0
16	15	4	57	388	0.0	286682.0	5406.0	-5696718.0
16	15	4	57	389	1.0	265398.0	7398.0	-5697276.0
16	15	4	57	389	2.0	187945.0	9196.0	-5696445.0
16	15	4	57	389	3.0	100951.0	10969.0	-5695736.0
16	15	4	57	390	4.0	30459.0	13382.0	-5696321.0
16	15	4	57	390	5.0	-18451.0	15289.0	-5697356.0
16	15	4	57	390	6.0	-67788.0	16650.0	-5696652.0
16	15	4	57	390	7.0	-113456.0	19026.0	-5695893.0
16	15	4	57	391	8.0	-155696.0	21996.0	-5695990.0
16	15	4	57	391	9.0	-173193.0	25098.0	-5697059.0
16	15	4	57	391	10.0	-196613.0	28861.0	-5696491.0
16	15	4	57	391	11.0	-200236.0	34011.0	-5695779.0
16	15	4	57	392	12.0	-189141.0	37639.0	-5696232.0
16	15	4	57	392	13.0	-167251.0	40689.0	-5697038.0
16	15	4	57	392	14.0	-147547.0	43469.0	-5696352.0
16	15	4	57	392	15.0	-130789.0	48681.0	-5695699.0
16	15	4	57	393	16.0	-112969.0	53426.0	-5696553.0
16	15	4	57	393	17.0	-75365.0	57999.0	-5697257.0
16	15	4	57	393	18.0	-34471.0	62002.0	-5696542.0
16	15	4	57	394	19.0	-8089.0	65813.0	-5695714.0
16	15	4	57	394	20.0	20718.0	69669.0	-5695745.0
16	15	4	57	394	21.0	73428.0	72013.0	-5696828.0
16	15	4	57	394	22.0	114786.0	75247.0	-5696397.0
16	15	4	57	395	23.0	169648.0	79182.0	-5695582.0
16	15	4	57	395	24.0	209836.0	85031.0	-5695423.0
16	15	4	57	395	25.0	210887.0	89664.0	-5696680.0
16	15	4	57	395	26.0	169988.0	93534.0	-5696456.0
16	15	4	57	396	27.0	131298.0	97168.0	-5695667.0
16	15	4	57	396	28.0	119098.0	99161.0	-5695660.0
16	15	4	57	396	29.0	116258.0	101009.0	-5696910.0
16	15	4	57	396	30.0	146424.0	104004.0	-5696568.0
16	15	4	57	397	31.0	197561.0	108121.0	-5695718.0
16	15	4	57	397	32.0	239911.0	111224.0	-5695583.0
16	15	4	57	487	33.0	262641.0	113477.0	-5696814.0
16	15	4	57	487	34.0	262856.0	115450.0	-5696576.0
16	15	4	57	488	35.0	227442.0	117328.0	-5695697.0
16	15	4	57	488	36.0	135659.0	116952.0	-5695296.0
16	15	4	57	489	37.0	-23179.0	117870.0	-5696448.0
16	15	4	57	489	38.0	-229727.0	119742.0	-5696453.0
16	15	4	57	489	39.0	-508349.0	121426.0	-5695602.0
16	15	4	57	489	40.0	-960467.0	122373.0	-5695106.0
16	15	4	57	490	41.0	-1964387.0	123123.0	-5696131.0
16	15	4	57	490	42.0	-3596784.0	123338.0	-5696143.0
16	15	4	57	490	43.0	-3263319.0	122264.0	-5695374.0
16	15	4	57	491	44.0	-1102914.0	119873.0	-5695195.0
16	15	4	57	491	45.0	985039.0	119649.0	-5696609.0
16	15	4	57	491	46.0	2526929.0	121224.0	-5696819.0
16	15	4	57	492	47.0	3214924.0	120284.0	-5696082.0
16	15	4	57	492	48.0	2400784.0	118864.0	-5695535.0
16	15	4	57	492	49.0	1232764.0	116724.0	-5696619.0
16	15	4	57	493	50.0	557843.0	115062.0	-5696717.0
16	15	4	57	493	51.0	13888.0	111136.0	-5695871.0
16	15	4	57	493	52.0	-405055.0	107951.0	-5695251.0
16	15	4	57	493	53.0	-634301.0	106179.0	-5696370.0
16	15	4	57	494	54.0	-543237.0	104687.0	-5696655.0
16	15	4	57	494	55.0	-184667.0	102149.0	-5695955.0
16	15	4	57	494	56.0	11061.0	99318.0	-5695262.0
16	15	4	57	494	57.0	72606.0	96400.0	-5696224.0
16	15	4	57	495	58.0	161029.0	92979.0	-5696741.0
16	15	4	57	495	59.0	83366.0	90184.0	-5696046.0
16	15	4	57	495	60.0	-43257.0	86491.0	-5695424.0
16	15	4	57	495	61.0	-90629.0	82925.0	-5696434.0
16	15	4	57	496	62.0	-68374.0	79749.0	-5696594.0
16	15	4	57	496	63.0	-54626.0	76343.0	-5695879.0
16	15	4	57	496	64.0	-40248.0	72855.0	-5695289.0
16	15	4	57	496	65.0	16013.0	68705.0	-5696478.0
16	15	4	57	497	66.0	113694.0	64309.0	-5696599.0
16	15	4	57	497	67.0	219536.0	61063.0	-5695910.0
16	15	4	57	497	68.0	198037.0	57198.0	-5695162.0
16	15	4	57	498	72.0	886430.0	42588.0	-5695287.0
16	15	4	57	498	73.0	1263268.0	37719.0	-5695983.0
16	15	4	57	498	74.0	1253254.0	32211.0	-5696634.0
16	15	4	57	498	75.0	1067675.0	28233.0	-5695973.0
16	15	4	57	499	76.0	966105.0	24361.0	-5695245.0
16	15	4	57	499	77.0	931677.0	20608.0	-5696139.0
16	15	4	57	499	78.0	871953.0	16816.0	-5696802.0
16	15	4	57	500	79.0	804123.0	14133.0	-5696169.0
16	15	4	57	500	80.0	759531.0	11996.0	-5695507.0
16	15	4	57	500	81.0	709854.0	6648.0	-5696239.0
16	15	4	57	501	82.0	616442.0	3364.0	-5696271.0
16	15	4	57	501	83.0	482673.0	1224.0	-5695577.0
16	15	4	57	501	84.0	310838.0	-2042.0	-5695120.0
16	15	4	57	502	85.0	138323.0	-5206.0	-5696347.0
16	15	4	57	502	86.0	3266.0	-8701.0	-5696179.0
16	15	4	57	502	87.0	-118218.0	-12161.0	-5695434.0
16	15	4	57	587	88.0	-214807.0	-16422.0	-5695024.0
16	15	4	57	588	89.0	-280194.0	-21031.0	-5696409.0
16	15	4	57	588	90.0	-312609.0	-24192.0	-5696322.0
16	15	4	57	588	91.0	-284049.0	-25652.0	-5695590.0
16	15	4	57	589	92.0	-187611.0	-28149.0	-5695379.0
16	15	4	57	589	93.0	-76777.0	-30904.0	-5696730.0
16	15	4	57	589	94.0	-13582.0	-32990.0	-5696430.0
16	15	4	57	590	95.0	-7746.0	-35972.0	-5695677.0
16	15	4	57	590	96.0	-26964.0	-40866.0	-5695394.0
16	15	4	57	590	97.0	-60433.0	-43876.0	-5696829.0
16	15	4	57	590	98.0	-99624.0	-44227.0	-5696640.0
16	15	4	57	590	99.0	-154862.0	-45722.0	-5695846.0
16	15	4	57	591	100.0	-274692.0	-48329.0	-5695140.0
16	15	4	57	591	101.0	-431698.0	-50589.0	-5695776.0
16	15	4	57	591	102.0	-546194.0	-52471.0	-5696558.0
16	15	4	57	591	103.0	-595258.0	-55366.0	-5695852.0
16	15	4	57	592	104.0	-592386.0	-58311.0	-5695196.0
16	15	4	57	592	105.0	-590158.0	-59669.0	-5695864.0
16	15	4	57	592	106.0	-587691.0	-59234.0	-5696488.0
16	15	4	57	592	107.0	-582222.0	-59252.0	-5695762.0
16	15	4	57	593	108.0	-597169.0	-60639.0	-5695211.0
16	15	4	57	593	109.0	-604281.0	-61618.0	-5696189.0
16	15	4	57	593	110.0	-583487.0	-63087.0	-5696629.0
16	15	4	57	593	111.0	-539614.0	-66143.0	-5695818.0
16	15	4	57	594	112.0	-504224.0	-67149.0	-5695237.0
16	15	4	57	594	113.0	-495056.0	-65586.0	-5696204.0
16	15	4	57	594	114.0	-457384.0	-65982.0	-5696659.0
16	15	4	57	594	115.0	-372449.0	-66077.0	-5695819.0
16	15	4	57	595	116.0	-269316.0	-65722.0	-5695246.0
16	15	4	57	595	117.0	-188757.0	-65237.0	-5696151.0
16	15	4	57	595	118.0	-122457.0	-66204.0	-5696807.0
16	15	4	57	596	119.0	-68549.0	-67121.0	-5696024.0
16	15	4	57	596	120.0	-21201.0	-66440.0	-5695342.0
16	15	4	57	596	121.0	77564.0	-64409.0	-5695852.0
16	15	4	57	596	122.0	201460.0	-63249.0	-5696841.0
16	15	4	57	597	123.0	305666.0	-62865.0	-5696178.0
