16	15	14	40	699	149.0	117123.0	-14179.0	-5602290.0
16	15	14	40	701	150.0	123619.0	-14799.0	-5601905.0
16	15	14	40	702	151.0	123157.0	-14977.0	-5603305.0
16	15	14	40	704	152.0	129102.0	-14941.0	-5603222.0
16	15	14	40	705	153.0	128692.0	-16021.0	-5602374.0
16	15	14	40	707	154.0	133937.0	-18342.0	-5602131.0
16	15	14	40	708	155.0	143724.0	-17739.0	-5603498.0
16	15	14	40	725	156.0	156148.0	-16256.0	-5603181.0
16	15	14	40	726	157.0	166659.0	-17885.0	-5602331.0
16	15	14	40	726	158.0	184319.0	-17874.0	-5602574.0
16	15	14	40	727	159.0	213909.0	-17238.0	-5603447.0
16	15	14	40	728	160.0	234956.0	-17747.0	-5602746.0
16	15	14	40	728	161.0	247583.0	-20321.0	-5601954.0
16	15	14	40	729	162.0	251714.0	-21029.0	-5602119.0
16	15	14	40	730	163.0	255785.0	-19506.0	-5602876.0
16	15	14	40	730	164.0	260048.0	-19752.0	-5602147.0
16	15	14	40	731	165.0	261546.0	-21482.0	-5601651.0
16	15	14	40	732	166.0	272183.0	-19969.0	-5602944.0
16	15	14	40	732	167.0	292398.0	-19552.0	-5602985.0
16	15	14	40	733	168.0	297764.0	-20542.0	-5602115.0
16	15	14	40	768	169.0	276291.0	-21894.0	-5601731.0
16	15	14	40	769	170.0	244066.0	-20374.0	-5602982.0
16	15	14	40	770	171.0	217680.0	-19906.0	-5602904.0
16	15	14	40	790	172.0	196006.0	-21509.0	-5602052.0
16	15	14	40	823	173.0	174156.0	-22184.0	-5602208.0
16	15	14	40	823	174.0	158599.0	-20183.0	-5603279.0
16	15	14	40	823	175.0	139658.0	-19584.0	-5602706.0
16	15	14	40	824	176.0	113184.0	-19732.0	-5601808.0
16	15	14	40	830	177.0	91706.0	-19685.0	-5602296.0
16	15	14	40	831	178.0	78746.0	-20033.0	-5603302.0
16	15	14	40	831	179.0	77078.0	-19965.0	-5602655.0
16	15	14	40	832	180.0	84662.0	-19676.0	-5601717.0
16	15	14	40	832	181.0	95944.0	-19043.0	-5601797.0
16	15	14	40	832	182.0	98969.0	-18600.0	-5603092.0
16	15	14	40	833	183.0	94796.0	-18797.0	-5602646.0
16	15	14	40	833	184.0	89326.0	-18351.0	-5601744.0
16	15	14	40	833	185.0	100498.0	-18004.0	-5602080.0
16	15	14	40	833	186.0	116433.0	-17749.0	-5602906.0
16	15	14	40	867	194.0	180064.0	-15659.0	-5602327.0
16	15	14	40	867	216.0	132264.0	-7432.0	-5603001.0
16	15	14	40	867	217.0	137317.0	-8649.0	-5603347.0
16	15	14	40	880	218.0	141581.0	-9906.0	-5602567.0
16	15	14	40	881	219.0	152178.0	-9608.0	-5602087.0
16	15	14	40	881	220.0	163392.0	-9286.0	-5603402.0
16	15	14	40	881	221.0	168722.0	-8793.0	-5603206.0
16	15	14	40	882	222.0	167761.0	-7123.0	-5602438.0
16	15	14	40	882	223.0	164814.0	-6174.0	-5602391.0
16	15	14	40	882	224.0	163106.0	-5537.0	-5603779.0
16	15	14	40	883	225.0	170368.0	-5249.0	-5603232.0
16	15	14	40	883	226.0	174742.0	-4936.0	-5602436.0
16	15	14	40	883	227.0	177099.0	-4588.0	-5602350.0
16	15	14	40	883	228.0	176211.0	-3724.0	-5603721.0
16	15	14	40	884	229.0	182280.0	-3432.0	-5603121.0
16	15	14	40	884	238.0	163531.0	-2024.0	-5602692.0
16	15	14	40	884	239.0	158473.0	-2327.0	-5603369.0
16	15	14	40	885	240.0	145935.0	-4718.0	-5604271.0
16	15	14	40	885	241.0	136801.0	-5392.0	-5603447.0
16	15	14	40	885	242.0	129859.0	-5868.0	-5602634.0
16	15	14	40	900	243.0	123824.0	-6141.0	-5602891.0
16	15	14	40	901	244.0	118183.0	-5874.0	-5603790.0
16	15	14	40	924	245.0	115182.0	-5589.0	-5603071.0
16	15	14	40	924	246.0	112741.0	-4835.0	-5602337.0
16	15	14	40	925	247.0	107366.0	-2609.0	-5603037.0
16	15	14	40	925	248.0	99755.0	-1827.0	-5603426.0
16	15	14	40	925	249.0	99113.0	-1802.0	-5602637.0
16	15	14	40	926	250.0	99108.0	-1834.0	-5602208.0
16	15	14	40	926	251.0	98093.0	-1146.0	-5603574.0
16	15	14	40	926	252.0	92733.0	-902.0	-5603469.0
16	15	14	40	926	253.0	92472.0	-730.0	-5602628.0
16	15	14	40	927	254.0	97883.0	-719.0	-5602367.0
16	15	14	40	927	255.0	98966.0	-619.0	-5603769.0
16	15	14	40	927	0.0	101525.0	-471.0	-5603405.0
16	15	14	40	927	1.0	105745.0	19.0	-5602595.0
16	15	14	40	928	2.0	103511.0	-94.0	-5602361.0
16	15	14	40	928	3.0	103847.0	-372.0	-5603833.0
16	15	14	40	928	5.0	119841.0	3.0	-5602634.0
16	15	14	40	929	6.0	125378.0	-1821.0	-5602134.0
16	15	14	40	929	7.0	141559.0	-3226.0	-5603399.0
16	15	14	40	929	8.0	154236.0	-3530.0	-5603164.0
16	15	14	40	929	9.0	160934.0	-4002.0	-5602370.0
16	15	14	40	943	10.0	153022.0	-4077.0	-5602079.0
16	15	14	40	964	11.0	146186.0	-4088.0	-5603109.0
16	15	14	40	964	12.0	146543.0	-3804.0	-5602629.0
16	15	14	40	964	13.0	145995.0	-1591.0	-5602123.0
16	15	14	40	965	14.0	142783.0	-549.0	-5603369.0
16	15	14	40	965	15.0	135734.0	81.0	-5603351.0
16	15	14	40	965	16.0	134391.0	908.0	-5602487.0
16	15	14	40	965	17.0	138637.0	1137.0	-5602187.0
16	15	14	40	966	18.0	148199.0	1006.0	-5603386.0
16	15	14	40	966	19.0	158991.0	1291.0	-5603142.0
16	15	14	40	966	20.0	161211.0	1305.0	-5602221.0
16	15	14	40	967	21.0	159636.0	2050.0	-5601836.0
16	15	14	40	980	22.0	145971.0	1869.0	-5603096.0
16	15	14	40	980	23.0	127711.0	1654.0	-5603029.0
16	15	14	40	981	24.0	104916.0	1518.0	-5602116.0
16	15	14	40	981	25.0	77920.0	2174.0	-5601754.0
16	15	14	40	981	27.0	39151.0	1856.0	-5603062.0
16	15	14	40	982	28.0	30771.0	1378.0	-5602162.0
16	15	14	40	982	29.0	26703.0	-632.0	-5602268.0
16	15	14	40	982	30.0	23029.0	-1413.0	-5603586.0
16	15	14	40	982	31.0	25451.0	-1937.0	-5603134.0
16	15	14	40	983	32.0	24399.0	-1958.0	-5602237.0
16	15	14	40	983	33.0	24693.0	-2202.0	-5602587.0
16	15	14	41	3	34.0	35456.0	-2227.0	-5603726.0
16	15	14	41	3	35.0	37243.0	-1604.0	-5603112.0
16	15	14	41	15	36.0	46889.0	351.0	-5602252.0
16	15	14	41	16	37.0	44551.0	1123.0	-5602173.0
16	15	14	41	16	38.0	23989.0	1163.0	-5603506.0
16	15	14	41	16	39.0	-13133.0	1301.0	-5603095.0
16	15	14	41	17	40.0	-48556.0	1735.0	-5602262.0
16	15	14	41	17	41.0	-74094.0	1426.0	-5602384.0
16	15	14	41	17	42.0	-95194.0	1699.0	-5603564.0
16	15	14	41	17	43.0	-104906.0	2623.0	-5602986.0
16	15	14	41	18	44.0	-94512.0	2749.0	-5602184.0
16	15	14	41	18	45.0	-68431.0	2436.0	-5602725.0
16	15	14	41	18	46.0	-29501.0	2425.0	-5603156.0
16	15	14	41	18	47.0	6673.0	2866.0	-5602407.0
16	15	14	41	19	48.0	32862.0	3354.0	-5602744.0
16	15	14	41	19	50.0	74816.0	3582.0	-5603501.0
16	15	14	41	19	51.0	94014.0	2312.0	-5602651.0
16	15	14	41	19	52.0	116526.0	1017.0	-5602386.0
16	15	14	41	20	53.0	147478.0	723.0	-5603654.0
16	15	14	41	20	54.0	172218.0	671.0	-5603305.0
16	15	14	41	20	55.0	181683.0	831.0	-5602440.0
16	15	14	41	48	56.0	187904.0	554.0	-5602656.0
16	15	14	41	48	57.0	204046.0	674.0	-5603989.0
16	15	14	41	48	58.0	239080.0	2812.0	-5603452.0
16	15	14	41	48	59.0	275602.0	3897.0	-5602613.0
16	15	14	41	64	60.0	299246.0	4073.0	-5603295.0
16	15	14	41	65	61.0	267478.0	4341.0	-5604316.0
16	15	14	41	65	62.0	116758.0	4769.0	-5603626.0
16	15	14	41	65	63.0	-228779.0	4891.0	-5602788.0
16	15	14	41	66	64.0	-622169.0	5133.0	-5603602.0
16	15	14	41	66	65.0	-845535.0	5366.0	-5604179.0
16	15	14	41	66	66.0	-858159.0	5859.0	-5603416.0
16	15	14	41	67	67.0	-745957.0	5759.0	-5602541.0
16	15	14	41	67	68.0	-535394.0	5714.0	-5603382.0
16	15	14	41	67	69.0	-250807.0	5664.0	-5604242.0
16	15	14	41	67	70.0	83251.0	6000.0	-5603599.0
16	15	14	41	68	72.0	693863.0	6496.0	-5603261.0
16	15	14	41	68	73.0	883938.0	5510.0	-5604264.0
16	15	14	41	68	74.0	942396.0	3623.0	-5603605.0
16	15	14	41	69	75.0	824017.0	3237.0	-5602864.0
16	15	14	41	69	76.0	534642.0	2628.0	-5604032.0
16	15	14	41	69	77.0	168341.0	2324.0	-5604417.0
16	15	14	41	69	78.0	-153712.0	2137.0	-5603606.0
16	15	14	41	92	79.0	-324904.0	2308.0	-5602801.0
16	15	14	41	92	80.0	-303738.0	2608.0	-5603322.0
16	15	14	41	107	81.0	-98608.0	4513.0	-5603389.0
16	15	14	41	108	82.0	234929.0	5272.0	-5602705.0
16	15	14	41	108	83.0	518219.0	5682.0	-5603309.0
16	15	14	41	108	84.0	625579.0	6674.0	-5604162.0
16	15	14	41	109	85.0	538216.0	6781.0	-5603341.0
16	15	14	41	109	86.0	352108.0	6239.0	-5602629.0
16	15	14	41	109	87.0	200266.0	6584.0	-5603543.0
16	15	14	41	110	88.0	154784.0	6882.0	-5604144.0
16	15	14	41	110	89.0	207604.0	6993.0	-5603304.0
16	15	14	41	110	90.0	307781.0	7144.0	-5602794.0
16	15	14	41	111	91.0	394944.0	7077.0	-5604108.0
16	15	14	41	111	92.0	427776.0	7192.0	-5604149.0
16	15	14	41	111	93.0	384028.0	7087.0	-5603278.0
16	15	14	41	112	95.0	143366.0	7442.0	-5604229.0
16	15	14	41	112	96.0	36384.0	5594.0	-5604098.0
16	15	14	41	112	97.0	-27210.0	4124.0	-5603196.0
16	15	14	41	112	98.0	-48464.0	4093.0	-5602804.0
16	15	14	41	113	99.0	-43832.0	3728.0	-5604184.0
16	15	14	41	113	100.0	-18806.0	3609.0	-5603904.0
16	15	14	41	137	101.0	19514.0	3841.0	-5603105.0
16	15	14	41	182	102.0	65688.0	4218.0	-5602643.0
16	15	14	41	183	103.0	113644.0	6483.0	-5604071.0
16	15	14	41	183	104.0	147144.0	7290.0	-5603924.0
16	15	14	41	184	105.0	160559.0	7286.0	-5603115.0
16	15	14	41	184	106.0	159748.0	7487.0	-5602792.0
16	15	14	41	184	107.0	143206.0	7806.0	-5603772.0
16	15	14	41	201	108.0	127622.0	7356.0	-5603261.0
16	15	14	41	201	109.0	115755.0	7431.0	-5603090.0
16	15	14	41	202	110.0	107601.0	7966.0	-5604710.0
16	15	14	41	202	111.0	110398.0	8243.0	-5604412.0
16	15	14	41	203	112.0	124161.0	8213.0	-5603560.0
16	15	14	41	203	113.0	148513.0	8383.0	-5603151.0
16	15	14	41	204	114.0	171538.0	8639.0	-5604256.0
16	15	14	41	204	115.0	193486.0	8427.0	-5604048.0
16	15	14	41	205	117.0	231319.0	9055.0	-5602739.0
16	15	14	41	205	140.0	100919.0	8973.0	-5603087.0
16	15	14	41	205	141.0	59076.0	7148.0	-5603579.0
16	15	14	41	206	142.0	19229.0	6437.0	-5604706.0
16	15	14	41	206	143.0	-12600.0	6538.0	-5604053.0
16	15	14	41	207	144.0	-40254.0	7293.0	-5603234.0
16	15	14	41	207	145.0	-47972.0	7629.0	-5603759.0
16	15	14	41	232	146.0	-47922.0	8116.0	-5604176.0
16	15	14	41	233	147.0	-40813.0	8924.0	-5603396.0
16	15	14	41	233	148.0	-28974.0	11809.0	-5603109.0
16	15	14	41	233	149.0	-22401.0	13424.0	-5604501.0
16	15	14	41	234	150.0	-20470.0	14762.0	-5604129.0
16	15	14	41	234	151.0	-25579.0	16308.0	-5603316.0
16	15	14	41	234	152.0	-25569.0	17458.0	-5603464.0
16	15	14	41	235	153.0	-32979.0	18803.0	-5604797.0
16	15	14	41	235	154.0	-38637.0	19943.0	-5604249.0
16	15	14	41	236	155.0	-31282.0	21244.0	-5603495.0
16	15	14	41	257	156.0	-11799.0	22530.0	-5604069.0
16	15	14	41	258	157.0	6191.0	23831.0	-5605036.0
16	15	14	41	258	158.0	21335.0	25455.0	-5604299.0
16	15	14	41	258	159.0	40296.0	26818.0	-5603521.0
16	15	14	41	259	160.0	65921.0	28304.0	-5604387.0
16	15	14	41	259	162.0	99191.0	31059.0	-5604301.0
16	15	14	41	259	163.0	122298.0	31205.0	-5603402.0
16	15	14	41	260	164.0	141546.0	29968.0	-5604077.0
16	15	14	41	260	165.0	152274.0	30973.0	-5605049.0
16	15	14	41	260	166.0	156713.0	32067.0	-5604386.0
16	15	14	41	261	167.0	156293.0	33061.0	-5603512.0
16	15	14	41	277	168.0	149150.0	34254.0	-5604009.0
16	15	14	41	278	169.0	149819.0	35242.0	-5604488.0
16	15	14	41	278	170.0	150206.0	37693.0	-5603747.0
16	15	14	41	278	171.0	165401.0	40471.0	-5603330.0
16	15	14	41	278	172.0	174309.0	41777.0	-5604207.0
16	15	14	41	279	173.0	173593.0	42605.0	-5603687.0
16	15	14	41	279	174.0	171451.0	43346.0	-5603072.0
16	15	14	41	279	175.0	173916.0	44038.0	-5604168.0
16	15	14	41	279	176.0	175309.0	44911.0	-5604475.0
16	15	14	41	280	177.0	177084.0	45148.0	-5603552.0
16	15	14	41	280	178.0	182089.0	45026.0	-5602912.0
16	15	14	41	298	179.0	180633.0	45557.0	-5603817.0
16	15	14	41	298	180.0	174113.0	45246.0	-5604251.0
16	15	14	41	298	181.0	185122.0	45558.0	-5603376.0
16	15	14	41	298	182.0	200991.0	45866.0	-5602776.0
16	15	14	41	299	185.0	222229.0	44891.0	-5603476.0
16	15	14	41	299	186.0	229834.0	42828.0	-5603119.0
16	15	14	41	299	187.0	239276.0	41421.0	-5604517.0
16	15	14	41	299	188.0	250122.0	40593.0	-5604485.0
16	15	14	41	300	189.0	255681.0	40106.0	-5603596.0
16	15	14	41	300	190.0	254131.0	39214.0	-5603461.0
16	15	14	41	316	191.0	260425.0	38567.0	-5604881.0
16	15	14	41	317	192.0	261673.0	38502.0	-5604587.0
16	15	14	41	332	193.0	262288.0	40158.0	-5603649.0
16	15	14	41	332	194.0	256481.0	39727.0	-5603331.0
16	15	14	41	333	195.0	237198.0	39059.0	-5604519.0
16	15	14	41	333	196.0	216307.0	38069.0	-5604224.0
16	15	14	41	333	197.0	200541.0	37234.0	-5603351.0
16	15	14	41	333	198.0	186013.0	36377.0	-5603074.0
16	15	14	41	334	199.0	141621.0	35312.0	-5604370.0
16	15	14	41	334	200.0	47031.0	34666.0	-5604029.0
16	15	14	41	334	201.0	-131606.0	33744.0	-5603208.0
16	15	14	41	334	202.0	-317187.0	32624.0	-5603027.0
16	15	14	41	335	203.0	-281856.0	31558.0	-5604376.0
16	15	14	41	335	204.0	-1124.0	30351.0	-5603931.0
16	15	14	41	335	205.0	290891.0	29298.0	-5603162.0
16	15	14	41	335	207.0	547848.0	27421.0	-5604866.0
16	15	14	41	336	208.0	448303.0	24740.0	-5604119.0
16	15	14	41	336	209.0	282358.0	21533.0	-5603369.0
16	15	14	41	336	210.0	183779.0	20036.0	-5603977.0
16	15	14	41	336	211.0	139888.0	18743.0	-5604522.0
16	15	14	41	337	212.0	84490.0	17374.0	-5603653.0
16	15	14	41	362	213.0	20779.0	16175.0	-5602931.0
16	15	14	41	382	214.0	-32107.0	14789.0	-5603541.0
16	15	14	41	382	215.0	-44367.0	15018.0	-5604374.0
16	15	14	41	383	216.0	-29478.0	15110.0	-5603522.0
16	15	14	41	383	217.0	4637.0	14220.0	-5602944.0
16	15	14	41	383	218.0	63148.0	12938.0	-5604004.0
16	15	14	41	384	219.0	132696.0	12342.0	-5604351.0
16	15	14	41	384	220.0	193100.0	11202.0	-5603492.0
16	15	14	41	384	221.0	231606.0	9822.0	-5603150.0
16	15	14	41	384	222.0	244973.0	9010.0	-5604649.0
16	15	14	41	385	223.0	219448.0	8036.0	-5604661.0
16	15	14	41	385	224.0	144566.0	6791.0	-5603743.0
16	15	14	41	386	225.0	17611.0	5965.0	-5603334.0
16	15	14	41	386	226.0	-118763.0	5033.0	-5604483.0
16	15	14	41	386	227.0	-213764.0	4390.0	-5604331.0
16	15	14	41	386	230.0	-190324.0	732.0	-5604365.0
16	15	14	41	387	231.0	-110734.0	-1940.0	-5604442.0
16	15	14	41	387	232.0	-36978.0	-3626.0	-5603582.0
16	15	14	41	387	233.0	35099.0	-4823.0	-5603178.0
16	15	14	41	388	234.0	107290.0	-5897.0	-5604349.0
16	15	14	41	388	235.0	175928.0	-6707.0	-5604224.0
16	15	14	41	407	236.0	225646.0	-7566.0	-5603375.0
16	15	14	41	428	237.0	249838.0	-7422.0	-5603517.0
16	15	14	41	429	238.0	266719.0	-6264.0	-5604749.0
16	15	14	41	430	239.0	263619.0	-6452.0	-5604194.0
16	15	14	41	430	240.0	195759.0	-6657.0	-5603357.0
16	15	14	41	431	241.0	168862.0	-7394.0	-5603629.0
16	15	14	41	432	242.0	189756.0	-7552.0	-5604766.0
16	15	14	41	432	243.0	201958.0	-7848.0	-5604092.0
16	15	14	41	433	244.0	164444.0	-8166.0	-5603284.0
16	15	14	41	433	245.0	99743.0	-8320.0	-5603361.0
16	15	14	41	434	246.0	79416.0	-8969.0	-5604300.0
16	15	14	41	434	247.0	103071.0	-10135.0	-5603652.0
16	15	14	41	434	248.0	123893.0	-10909.0	-5603174.0
16	15	14	41	435	249.0	126644.0	-11136.0	-5604522.0
16	15	14	41	435	250.0	133011.0	-11560.0	-5604558.0
16	15	14	41	436	252.0	171630.0	-11914.0	-5603526.0
16	15	14	41	436	253.0	182350.0	-14113.0	-5604937.0
16	15	14	41	437	254.0	184491.0	-15980.0	-5604617.0
16	15	14	41	437	255.0	187718.0	-16529.0	-5603732.0
16	15	14	41	438	0.0	193277.0	-17454.0	-5603495.0
16	15	14	41	438	1.0	192504.0	-17871.0	-5604773.0
16	15	14	41	451	2.0	191878.0	-18589.0	-5604447.0
16	15	14	41	469	3.0	197776.0	-18862.0	-5603529.0
16	15	14	41	469	4.0	201679.0	-17739.0	-5603259.0
16	15	14	41	470	5.0	188237.0	-17045.0	-5604541.0
16	15	14	41	470	6.0	186823.0	-17404.0	-5604354.0
16	15	14	41	470	7.0	195302.0	-18138.0	-5603448.0
16	15	14	41	470	8.0	199008.0	-17764.0	-5603408.0
16	15	14	41	471	9.0	193778.0	-18146.0	-5604793.0
16	15	14	41	471	10.0	183401.0	-18389.0	-5604442.0
16	15	14	41	471	11.0	177807.0	-18607.0	-5603591.0
16	15	14	41	471	12.0	177189.0	-18601.0	-5604151.0
16	15	14	41	472	13.0	176489.0	-18354.0	-5604916.0
16	15	14	41	472	14.0	169570.0	-18450.0	-5604219.0
16	15	14	41	472	15.0	158754.0	-18366.0	-5603403.0
16	15	14	41	472	16.0	146087.0	-18314.0	-5604357.0
16	15	14	41	473	18.0	120103.0	-19057.0	-5604351.0
16	15	14	41	473	19.0	110882.0	-19707.0	-5603490.0
16	15	14	41	473	20.0	107366.0	-21979.0	-5603906.0
16	15	14	41	473	21.0	104989.0	-23024.0	-5604232.0
16	15	14	41	474	22.0	107608.0	-23183.0	-5603506.0
16	15	14	41	474	23.0	111566.0	-23381.0	-5603819.0
16	15	14	41	474	24.0	132029.0	-23101.0	-5605199.0
16	15	14	41	496	25.0	157666.0	-23042.0	-5604528.0
16	15	14	41	515	26.0	172411.0	-23025.0	-5603832.0
16	15	14	41	516	27.0	172385.0	-20817.0	-5604683.0
16	15	14	41	516	28.0	168593.0	-19691.0	-5605436.0
16	15	14	41	516	29.0	164767.0	-19251.0	-5604600.0
16	15	14	41	516	30.0	156591.0	-18864.0	-5603981.0
16	15	14	41	517	31.0	148463.0	-18374.0	-5605042.0
16	15	14	41	517	32.0	139684.0	-18169.0	-5605507.0
16	15	14	41	517	33.0	139575.0	-17621.0	-5604647.0
16	15	14	41	518	34.0	142689.0	-17346.0	-5603946.0
16	15	14	41	518	35.0	139352.0	-16916.0	-5604781.0
16	15	14	41	518	36.0	137933.0	-16549.0	-5605257.0
16	15	14	41	518	37.0	135598.0	-16263.0	-5604434.0
16	15	14	41	519	38.0	133362.0	-15773.0	-5603695.0
16	15	14	41	519	39.0	130873.0	-15568.0	-5604588.0
16	15	14	41	519	41.0	120384.0	-15189.0	-5604268.0
16	15	14	41	520	42.0	114440.0	-16154.0	-5603755.0
16	15	14	41	520	43.0	101934.0	-17497.0	-5605021.0
16	15	14	41	520	44.0	83724.0	-17479.0	-5604852.0
16	15	14	41	521	45.0	69668.0	-17191.0	-5604069.0
16	15	14	41	521	46.0	61594.0	-16826.0	-5604045.0
16	15	14	41	543	47.0	58173.0	-16423.0	-5605439.0
16	15	14	41	543	48.0	52046.0	-16258.0	-5604886.0
16	15	14	41	543	49.0	46595.0	-13816.0	-5604094.0
16	15	14	41	543	50.0	51868.0	-11936.0	-5603704.0
16	15	14	41	555	51.0	59654.0	-11844.0	-5604774.0
16	15	14	41	555	52.0	57037.0	-11571.0	-5604344.0
16	15	14	41	555	53.0	51336.0	-10791.0	-5603776.0
16	15	14	41	556	54.0	48583.0	-10107.0	-5604886.0
16	15	14	41	556	55.0	44860.0	-9168.0	-5605204.0
16	15	14	41	587	56.0	42366.0	-9019.0	-5604324.0
16	15	14	41	599	57.0	46949.0	-8219.0	-5603802.0
16	15	14	41	600	58.0	55466.0	-7702.0	-5604967.0
16	15	14	41	600	59.0	56719.0	-7949.0	-5605169.0
16	15	14	41	600	60.0	53659.0	-7786.0	-5604297.0
16	15	14	41	600	61.0	46427.0	-7285.0	-5604125.0
16	15	14	41	601	63.0	57238.0	-6806.0	-5605177.0
16	15	14	41	601	64.0	72095.0	-7133.0	-5604267.0
16	15	14	41	601	65.0	91269.0	-9261.0	-5603951.0
16	15	14	41	602	66.0	107544.0	-9735.0	-5605479.0
16	15	14	41	602	67.0	119655.0	-9249.0	-5605496.0
16	15	14	41	602	68.0	121239.0	-6770.0	-5604581.0
16	15	14	41	603	69.0	108719.0	-5516.0	-5603994.0
16	15	14	41	603	70.0	90423.0	-5326.0	-5605086.0
16	15	14	41	603	71.0	72239.0	-5321.0	-5605365.0
16	15	14	41	603	86.0	88940.0	-2152.0	-5605926.0
16	15	14	41	604	87.0	102645.0	-4143.0	-5605561.0
16	15	14	41	604	88.0	127132.0	-5306.0	-5604721.0
16	15	14	41	604	89.0	150274.0	-5319.0	-5604322.0
16	15	14	41	604	90.0	165273.0	-5510.0	-5605741.0
16	15	14	41	618	91.0	166629.0	-5625.0	-5605516.0
16	15	14	41	636	92.0	165968.0	-5675.0	-5604712.0
16	15	14	41	637	93.0	164099.0	-5755.0	-5604582.0
16	15	14	41	637	94.0	163346.0	-3436.0	-5605373.0
16	15	14	41	637	95.0	156669.0	-2401.0	-5604715.0
16	15	14	41	655	96.0	154156.0	-2401.0	-5604679.0
16	15	14	41	655	97.0	157680.0	-2606.0	-5605867.0
16	15	14	41	655	98.0	150939.0	-2146.0	-5605329.0
16	15	14	41	655	99.0	138476.0	-1265.0	-5604397.0
16	15	14	41	656	100.0	127154.0	-1438.0	-5604357.0
16	15	14	41	656	101.0	114588.0	-1787.0	-5605757.0
16	15	14	41	656	102.0	96214.0	-1419.0	-5605401.0
16	15	14	41	656	103.0	83514.0	-1332.0	-5604516.0
16	15	14	41	657	104.0	77576.0	-1304.0	-5604842.0
16	15	14	41	657	105.0	83646.0	-1634.0	-5605965.0
16	15	14	41	657	106.0	84888.0	-935.0	-5605382.0
16	15	14	41	657	108.0	81518.0	-709.0	-5604984.0
16	15	14	41	658	109.0	81659.0	-2119.0	-5605995.0
16	15	14	41	658	110.0	81349.0	-4287.0	-5605374.0
16	15	14	41	658	111.0	77605.0	-5056.0	-5604520.0
16	15	14	41	658	112.0	73174.0	-5067.0	-5605162.0
16	15	14	41	659	113.0	64195.0	-5209.0	-5606069.0
16	15	14	41	659	114.0	54055.0	-5577.0	-5605415.0
16	15	14	41	677	115.0	44716.0	-5521.0	-5604489.0
16	15	14	41	677	116.0	34078.0	-4960.0	-5604653.0
16	15	14	41	678	117.0	32244.0	-2729.0	-5605804.0
16	15	14	41	678	118.0	32230.0	-1816.0	-5605251.0
16	15	14	41	699	119.0	30711.0	-1525.0	-5604385.0
16	15	14	41	700	120.0	25114.0	-1446.0	-5604886.0
16	15	14	41	700	121.0	19072.0	-1431.0	-5605954.0
16	15	14	41	700	122.0	14778.0	-661.0	-5605277.0
16	15	14	41	701	123.0	14225.0	41.0	-5604597.0
16	15	14	41	701	124.0	19925.0	158.0	-5605650.0
16	15	14	41	701	125.0	24279.0	-186.0	-5605837.0
16	15	14	41	702	126.0	24568.0	-164.0	-5605055.0
16	15	14	41	702	127.0	22464.0	423.0	-5604852.0
16	15	14	41	702	128.0	22904.0	588.0	-5606156.0
16	15	14	41	703	129.0	28230.0	666.0	-5605635.0
16	15	14	41	703	131.0	34178.0	674.0	-5605269.0
16	15	14	41	703	132.0	21058.0	-968.0	-5606462.0
16	15	14	41	703	133.0	13011.0	-2371.0	-5605725.0
16	15	14	41	704	134.0	23680.0	-2826.0	-5604916.0
16	15	14	41	704	135.0	41673.0	-2840.0	-5605252.0
16	15	14	41	704	136.0	60993.0	-2876.0	-5606634.0
16	15	14	41	722	137.0	84793.0	-2842.0	-5605939.0
16	15	14	41	737	138.0	101418.0	-2440.0	-5605153.0
16	15	14	41	738	139.0	125043.0	-541.0	-5605618.0
16	15	14	41	738	140.0	152578.0	504.0	-5606493.0
16	15	14	41	738	141.0	180554.0	578.0	-5605741.0
16	15	14	41	738	142.0	204285.0	1322.0	-5605086.0
16	15	14	41	738	143.0	223613.0	1638.0	-5606239.0
16	15	14	41	739	144.0	248285.0	1867.0	-5606793.0
16	15	14	41	739	145.0	274214.0	2399.0	-5605977.0
16	15	14	41	739	146.0	301108.0	2101.0	-5605191.0
16	15	14	41	739	147.0	317110.0	1986.0	-5605582.0
16	15	14	41	739	148.0	317802.0	1968.0	-5606609.0
16	15	14	41	740	149.0	312239.0	2014.0	-5605904.0
16	15	14	41	740	150.0	300167.0	2066.0	-5605106.0
16	15	14	41	740	151.0	290796.0	2485.0	-5605781.0
16	15	14	41	740	153.0	217026.0	2883.0	-5605556.0
16	15	14	41	740	154.0	79805.0	2507.0	-5604876.0
16	15	14	41	741	155.0	-215840.0	410.0	-5605962.0
16	15	14	41	741	156.0	-639568.0	-46.0	-5606142.0
16	15	14	41	741	157.0	-964932.0	-201.0	-5605284.0
16	15	14	41	741	158.0	-1073397.0	-652.0	-5604674.0
16	15	14	41	741	159.0	-1015924.0	-702.0	-5605997.0
16	15	14	41	767	160.0	-865714.0	-747.0	-5606129.0
16	15	14	41	782	161.0	-631898.0	173.0	-5605321.0
16	15	14	41	783	162.0	-309877.0	1785.0	-5605001.0
16	15	14	41	783	163.0	56392.0	2717.0	-5606645.0
16	15	14	41	783	164.0	370399.0	3434.0	-5606436.0
16	15	14	41	784	165.0	575604.0	3938.0	-5605671.0
16	15	14	41	784	166.0	674255.0	4404.0	-5604896.0
16	15	14	41	784	167.0	654687.0	4223.0	-5606016.0
16	15	14	41	785	168.0	493975.0	4323.0	-5606621.0
16	15	14	41	785	169.0	170756.0	4766.0	-5605867.0
16	15	14	41	785	170.0	-197159.0	5209.0	-5605322.0
16	15	14	41	785	171.0	-425566.0	4625.0	-5606711.0
16	15	14	41	786	172.0	-420550.0	4814.0	-5606546.0
16	15	14	41	786	173.0	-194482.0	5451.0	-5605796.0
16	15	14	41	786	174.0	77058.0	5434.0	-5605248.0
16	15	14	41	786	176.0	446673.0	5486.0	-5606411.0
16	15	14	41	787	177.0	561941.0	3532.0	-5605672.0
16	15	14	41	787	178.0	594826.0	2610.0	-5605493.0
16	15	14	41	787	179.0	538681.0	2365.0	-5606879.0
16	15	14	41	788	180.0	451098.0	2173.0	-5606391.0
16	15	14	41	788	181.0	377046.0	1834.0	-5605581.0
16	15	14	41	812	182.0	329699.0	1852.0	-5605528.0
16	15	14	41	833	183.0	279496.0	2189.0	-5606769.0
16	15	14	41	834	184.0	207032.0	4270.0	-5606217.0
16	15	14	41	834	185.0	113990.0	4818.0	-5605412.0
16	15	14	41	835	186.0	13981.0	5622.0	-5605441.0
16	15	14	41	835	187.0	-67546.0	6843.0	-5606862.0
16	15	14	41	836	188.0	-106423.0	6829.0	-5606349.0
16	15	14	41	836	189.0	-106471.0	7119.0	-5605578.0
16	15	14	41	837	190.0	-94680.0	7248.0	-5605989.0
16	15	14	41	837	191.0	-88437.0	7060.0	-5607031.0
16	15	14	41	838	192.0	-81531.0	7219.0	-5606333.0
16	15	14	41	838	193.0	-55902.0	6987.0	-5605579.0
16	15	14	41	839	194.0	-16649.0	7134.0	-5606221.0
16	15	14	41	839	195.0	16566.0	7611.0	-5606919.0
16	15	14	41	840	196.0	36482.0	8097.0	-5606165.0
16	15	14	41	840	198.0	57584.0	7944.0	-5605681.0
16	15	14	41	840	199.0	52847.0	6750.0	-5606953.0
16	15	14	41	841	200.0	42891.0	5313.0	-5606379.0
16	15	14	41	841	201.0	28930.0	4468.0	-5605522.0
16	15	14	41	842	202.0	27628.0	3589.0	-5605907.0
16	15	14	41	843	203.0	39518.0	3546.0	-5606771.0
16	15	14	41	862	204.0	55844.0	3469.0	-5606114.0
16	15	14	41	862	205.0	79020.0	3294.0	-5605357.0
16	15	14	41	862	206.0	109769.0	4081.0	-5606415.0
16	15	14	41	863	207.0	149028.0	6579.0	-5606767.0
16	15	14	41	863	208.0	192054.0	7521.0	-5606021.0
16	15	14	41	864	209.0	238008.0	7691.0	-5605330.0
16	15	14	41	864	210.0	278842.0	8254.0	-5606412.0
16	15	14	41	864	211.0	307591.0	7947.0	-5606529.0
16	15	14	41	865	212.0	319773.0	7758.0	-5605749.0
16	15	14	41	865	213.0	318916.0	7764.0	-5605095.0
16	15	14	41	885	214.0	325685.0	7764.0	-5605922.0
16	15	14	41	885	215.0	337347.0	8328.0	-5605701.0
16	15	14	41	885	216.0	343528.0	8181.0	-5604998.0
16	15	14	41	885	217.0	323400.0	7919.0	-5605791.0
16	15	14	41	886	218.0	290300.0	8178.0	-5606856.0
16	15	14	41	886	219.0	265966.0	8531.0	-5606084.0
16	15	14	41	886	221.0	228509.0	8061.0	-5606480.0
16	15	14	41	887	222.0	203688.0	6133.0	-5606987.0
16	15	14	41	887	223.0	170640.0	4809.0	-5606121.0
16	15	14	41	887	224.0	139171.0	4508.0	-5605559.0
16	15	14	41	887	225.0	116533.0	4169.0	-5606622.0
16	15	14	41	888	226.0	108443.0	4124.0	-5606944.0
16	15	14	41	902	227.0	110346.0	4491.0	-5606017.0
16	15	14	41	903	228.0	116819.0	4836.0	-5605304.0
16	15	14	41	920	229.0	118473.0	6760.0	-5606036.0
16	15	14	41	920	230.0	114894.0	7984.0	-5606709.0
16	15	14	41	921	231.0	105903.0	8801.0	-5605874.0
16	15	14	41	921	232.0	88115.0	8823.0	-5605346.0
16	15	14	41	921	233.0	62471.0	9386.0	-5606733.0
16	15	14	41	922	234.0	36789.0	9949.0	-5606977.0
16	15	14	41	922	235.0	10166.0	10522.0	-5606139.0
16	15	14	41	922	236.0	-19119.0	10601.0	-5605751.0
16	15	14	41	922	237.0	-43875.0	11652.0	-5606991.0
16	15	14	41	923	238.0	-57494.0	12236.0	-5606867.0
16	15	14	41	923	239.0	-69236.0	12883.0	-5605981.0
16	15	14	41	923	240.0	-85472.0	13811.0	-5605518.0
16	15	14	41	923	241.0	-104269.0	14582.0	-5606695.0
16	15	14	41	924	243.0	-133016.0	16656.0	-5605654.0
16	15	14	41	924	244.0	-128205.0	16531.0	-5605262.0
16	15	14	41	924	245.0	-114388.0	15923.0	-5606467.0
16	15	14	41	924	246.0	-94277.0	16608.0	-5606171.0
16	15	14	41	925	247.0	-71824.0	18006.0	-5605334.0
16	15	14	41	925	248.0	-45989.0	18996.0	-5605245.0
16	15	14	41	925	249.0	-22206.0	19983.0	-5606766.0
16	15	14	41	948	250.0	-3729.0	21030.0	-5606321.0
16	15	14	41	966	251.0	13419.0	23140.0	-5605541.0
16	15	14	41	966	252.0	33359.0	26594.0	-5605526.0
16	15	14	41	967	253.0	50038.0	28436.0	-5606233.0
16	15	14	41	967	254.0	54447.0	29681.0	-5605548.0
16	15	14	41	967	255.0	54583.0	30851.0	-5605455.0
16	15	14	41	968	0.0	58409.0	32048.0	-5606886.0
16	15	14	41	968	1.0	73390.0	32709.0	-5606486.0
16	15	14	41	968	2.0	96819.0	33739.0	-5605626.0
16	15	14	41	968	3.0	118251.0	35062.0	-5605411.0
16	15	14	41	969	4.0	126940.0	36394.0	-5606775.0
16	15	14	41	969	5.0	127196.0	37751.0	-5606472.0
16	15	14	41	969	6.0	133902.0	38384.0	-5605595.0
16	15	14	41	969	7.0	144762.0	39279.0	-5605802.0
16	15	14	41	970	8.0	165162.0	40344.0	-5607030.0
16	15	14	41	970	10.0	200091.0	40520.0	-5605629.0
16	15	14	41	994	11.0	209291.0	39278.0	-5606396.0
16	15	14	41	994	12.0	216211.0	39016.0	-5607194.0
16	15	14	41	995	13.0	224573.0	39026.0	-5606439.0
16	15	14	41	995	14.0	231187.0	39234.0	-5605566.0
16	15	14	41	995	15.0	235053.0	39523.0	-5606196.0
16	15	14	42	23	16.0	240132.0	41368.0	-5607121.0
16	15	14	42	24	17.0	250588.0	42968.0	-5606457.0
16	15	14	42	24	18.0	260879.0	42964.0	-5605566.0
16	15	14	42	24	19.0	269085.0	43349.0	-5605893.0
16	15	14	42	24	20.0	275029.0	43428.0	-5606969.0
16	15	14	42	25	21.0	281392.0	42596.0	-5606388.0
16	15	14	42	25	22.0	284257.0	42462.0	-5605490.0
16	15	14	42	25	23.0	284294.0	42429.0	-5605814.0
16	15	14	42	25	24.0	278273.0	42058.0	-5606922.0
16	15	14	42	25	25.0	269538.0	41902.0	-5606300.0
16	15	14	42	26	32.0	175014.0	37946.0	-5606062.0
16	15	14	42	26	33.0	125752.0	35884.0	-5605381.0
16	15	14	42	26	34.0	36542.0	33077.0	-5606017.0
16	15	14	42	26	35.0	-138481.0	32098.0	-5606620.0
16	15	14	42	26	36.0	-316595.0	31252.0	-5605751.0
16	15	14	42	27	37.0	-275799.0	29935.0	-5605009.0
16	15	14	42	53	38.0	-26318.0	28718.0	-5605781.0
16	15	14	42	53	39.0	205471.0	27965.0	-5606748.0
16	15	14	42	54	40.0	337426.0	28810.0	-5605969.0
16	15	14	42	54	41.0	371912.0	29041.0	-5605180.0
16	15	14	42	54	42.0	265378.0	28739.0	-5605657.0
16	15	14	42	54	43.0	109281.0	27644.0	-5606497.0
16	15	14	42	55	44.0	17839.0	26765.0	-5605731.0
16	15	14	42	55	45.0	-16950.0	25723.0	-5605216.0
16	15	14	42	55	46.0	-42804.0	24034.0	-5606449.0
16	15	14	42	55	47.0	-84041.0	22843.0	-5606419.0
16	15	14	42	56	48.0	-128215.0	21970.0	-5605592.0
16	15	14	42	56	49.0	-144212.0	20919.0	-5605170.0
16	15	14	42	56	50.0	-121667.0	19476.0	-5606537.0
16	15	14	42	56	51.0	-73229.0	18478.0	-5606359.0
16	15	14	42	57	52.0	-4467.0	17300.0	-5605535.0
16	15	14	42	57	54.0	131866.0	14943.0	-5606276.0
16	15	14	42	57	55.0	167776.0	13508.0	-5606251.0
16	15	14	42	57	56.0	185926.0	10597.0	-5605450.0
16	15	14	42	58	57.0	174393.0	8656.0	-5605041.0
16	15	14	42	58	58.0	130075.0	7044.0	-5606484.0
16	15	14	42	58	59.0	71770.0	5818.0	-5606201.0
16	15	14	42	58	60.0	5571.0	4453.0	-5605396.0
16	15	14	42	83	61.0	-75774.0	3232.0	-5604972.0
16	15	14	42	83	62.0	-182289.0	2896.0	-5605950.0
16	15	14	42	113	63.0	-281751.0	3750.0	-5605507.0
16	15	14	42	114	64.0	-326395.0	3249.0	-5605113.0
16	15	14	42	114	65.0	-300014.0	2275.0	-5606312.0
16	15	14	42	114	66.0	-251112.0	1424.0	-5606208.0
16	15	14	42	115	67.0	-183866.0	480.0	-5605291.0
16	15	14	42	115	68.0	-127432.0	278.0	-5605030.0
16	15	14	42	115	69.0	-92901.0	-403.0	-5606354.0
16	15	14	42	115	70.0	-61844.0	-1253.0	-5606172.0
16	15	14	42	116	71.0	-17436.0	-2098.0	-5605274.0
16	15	14	42	116	72.0	15583.0	-2528.0	-5605086.0
16	15	14	42	116	73.0	36464.0	-3706.0	-5606282.0
16	15	14	42	116	74.0	42264.0	-4552.0	-5605964.0
16	15	14	42	117	75.0	32454.0	-5044.0	-5605056.0
16	15	14	42	117	77.0	-8179.0	-6292.0	-5606563.0
16	15	14	42	117	78.0	-16202.0	-8727.0	-5606004.0
16	15	14	42	118	79.0	-3337.0	-10929.0	-5605122.0
16	15	14	42	118	80.0	29218.0	-11849.0	-5605570.0
16	15	14	42	118	81.0	60187.0	-12549.0	-5606916.0
16	15	14	42	118	82.0	83849.0	-13409.0	-5606361.0
16	15	14	42	144	83.0	112506.0	-14508.0	-5605446.0
16	15	14	42	144	84.0	143519.0	-14469.0	-5605191.0
16	15	14	42	145	85.0	171400.0	-13083.0	-5606382.0
16	15	14	42	145	86.0	198826.0	-12828.0	-5606041.0
16	15	14	42	145	87.0	210490.0	-13306.0	-5605170.0
16	15	14	42	146	88.0	225749.0	-13746.0	-5605072.0
16	15	14	42	146	89.0	232233.0	-13515.0	-5606427.0
16	15	14	42	146	90.0	247619.0	-13744.0	-5606019.0
16	15	14	42	147	91.0	250629.0	-14695.0	-5605274.0
16	15	14	42	147	92.0	268425.0	-14474.0	-5605945.0
16	15	14	42	147	93.0	274749.0	-15132.0	-5606719.0
16	15	14	42	148	94.0	268490.0	-15732.0	-5605976.0
16	15	14	42	148	95.0	250424.0	-16344.0	-5605156.0
16	15	14	42	148	96.0	233548.0	-16579.0	-5605411.0
16	15	14	42	148	97.0	221150.0	-16989.0	-5605756.0
16	15	14	42	149	99.0	221115.0	-18070.0	-5605046.0
16	15	14	42	149	100.0	213639.0	-19077.0	-5606450.0
16	15	14	42	149	101.0	209879.0	-21343.0	-5605959.0
16	15	14	42	150	102.0	194330.0	-22194.0	-5605126.0
16	15	14	42	150	103.0	193676.0	-22356.0	-5605079.0
16	15	14	42	150	104.0	178729.0	-22082.0	-5606205.0
16	15	14	42	150	105.0	167351.0	-22411.0	-5605676.0
16	15	14	42	217	106.0	150986.0	-22756.0	-5604875.0
16	15	14	42	217	107.0	133784.0	-22246.0	-5605752.0
16	15	14	42	218	108.0	123839.0	-19944.0	-5606455.0
16	15	14	42	236	109.0	106006.0	-19140.0	-5605692.0
16	15	14	42	236	110.0	92034.0	-18854.0	-5604882.0
16	15	14	42	237	111.0	62529.0	-18620.0	-5605571.0
16	15	14	42	237	112.0	44813.0	-18704.0	-5606604.0
16	15	14	42	238	113.0	21389.0	-18491.0	-5605907.0
16	15	14	42	238	114.0	19628.0	-18125.0	-5605010.0
16	15	14	42	239	115.0	19503.0	-18203.0	-5605231.0
16	15	14	42	239	116.0	32669.0	-17981.0	-5606494.0
16	15	14	42	240	117.0	40243.0	-17969.0	-5605994.0
16	15	14	42	240	118.0	37304.0	-17225.0	-5605098.0
16	15	14	42	241	119.0	31832.0	-17072.0	-5605366.0
16	15	14	42	242	120.0	12889.0	-17276.0	-5606354.0
16	15	14	42	242	144.0	79626.0	-8945.0	-5605519.0
16	15	14	42	243	145.0	65873.0	-9492.0	-5605001.0
16	15	14	42	243	146.0	60969.0	-11484.0	-5606189.0
16	15	14	42	244	147.0	36553.0	-11704.0	-5606321.0
16	15	14	42	244	148.0	25506.0	-11567.0	-5605479.0
16	15	14	42	245	149.0	445.0	-11334.0	-5604811.0
16	15	14	42	245	150.0	-27884.0	-11047.0	-5605927.0
16	15	14	42	284	151.0	-40465.0	-10981.0	-5606376.0
16	15	14	42	284	152.0	-56527.0	-10309.0	-5605572.0
16	15	14	42	284	153.0	-55344.0	-7849.0	-5604913.0
16	15	14	42	285	154.0	-71792.0	-6391.0	-5606138.0
16	15	14	42	320	155.0	-69918.0	-6287.0	-5606441.0
16	15	14	42	320	156.0	-73291.0	-6225.0	-5605616.0
16	15	14	42	320	157.0	-67895.0	-5767.0	-5605298.0
16	15	14	42	321	158.0	-62258.0	-5279.0	-5606840.0
16	15	14	42	321	159.0	-56433.0	-4873.0	-5606590.0
16	15	14	42	321	160.0	-31424.0	-4637.0	-5605811.0
16	15	14	42	322	161.0	-9967.0	-4090.0	-5605664.0
16	15	14	42	322	162.0	32035.0	-3374.0	-5607082.0
16	15	14	42	322	163.0	52724.0	-2886.0	-5606557.0
16	15	14	42	322	164.0	73410.0	-2732.0	-5605776.0
16	15	14	42	323	165.0	76309.0	-2655.0	-5605292.0
16	15	14	42	323	167.0	77230.0	-3121.0	-5606013.0
16	15	14	42	323	168.0	79062.0	-4994.0	-5605349.0
16	15	14	42	323	169.0	81724.0	-5328.0	-5606237.0
16	15	14	42	324	170.0	69554.0	-3742.0	-5606821.0
16	15	14	42	324	189.0	10849.0	-1701.0	-5607008.0
16	15	14	42	324	190.0	19830.0	-2084.0	-5606657.0
16	15	14	42	325	191.0	39409.0	-4347.0	-5605789.0
16	15	14	42	325	192.0	43593.0	-4896.0	-5605734.0
16	15	14	42	325	193.0	55318.0	-4996.0	-5607166.0
16	15	14	42	325	194.0	76406.0	-5221.0	-5606790.0
16	15	14	42	326	195.0	90169.0	-5237.0	-5605899.0
16	15	14	42	356	196.0	109083.0	-5209.0	-5605586.0
16	15	14	42	357	197.0	107113.0	-5019.0	-5607030.0
16	15	14	42	357	198.0	125090.0	-2899.0	-5606862.0
16	15	14	42	358	199.0	123286.0	-1819.0	-5606009.0
16	15	14	42	358	200.0	126609.0	-1535.0	-5605772.0
16	15	14	42	358	201.0	119952.0	-1837.0	-5607129.0
16	15	14	42	359	202.0	120867.0	-1702.0	-5606766.0
16	15	14	42	359	203.0	127013.0	-2067.0	-5605948.0
16	15	14	42	360	204.0	126404.0	-2000.0	-5605836.0
16	15	14	42	396	205.0	142666.0	-1170.0	-5607287.0
16	15	14	42	396	206.0	144263.0	-1129.0	-5606863.0
16	15	14	42	396	207.0	156913.0	-928.0	-5606054.0
16	15	14	42	397	208.0	149126.0	-394.0	-5606005.0
16	15	14	42	397	209.0	140984.0	-682.0	-5607233.0
16	15	14	42	398	210.0	120859.0	-336.0	-5606672.0
16	15	14	42	398	212.0	104048.0	-579.0	-5606104.0
16	15	14	42	398	213.0	83984.0	-2232.0	-5607047.0
16	15	14	42	398	214.0	72252.0	-3510.0	-5606278.0
16	15	14	42	399	215.0	49961.0	-3984.0	-5605551.0
16	15	14	42	399	216.0	47758.0	-3702.0	-5606194.0
16	15	14	42	399	217.0	49095.0	-3872.0	-5607051.0
16	15	14	42	400	218.0	63853.0	-3767.0	-5606234.0
16	15	14	42	400	219.0	76004.0	-3645.0	-5605689.0
16	15	14	42	436	220.0	71996.0	-996.0	-5606806.0
16	15	14	42	436	221.0	72565.0	-443.0	-5607097.0
16	15	14	42	436	222.0	70429.0	-252.0	-5606169.0
16	15	14	42	437	223.0	75720.0	-42.0	-5605658.0
16	15	14	42	437	224.0	58275.0	258.0	-5606849.0
16	15	14	42	437	225.0	44356.0	211.0	-5607034.0
16	15	14	42	438	226.0	27559.0	-39.0	-5606136.0
16	15	14	42	438	227.0	18188.0	674.0	-5605625.0
16	15	14	42	438	228.0	19457.0	934.0	-5606859.0
16	15	14	42	439	229.0	1124.0	917.0	-5607046.0
16	15	14	42	439	230.0	-5966.0	918.0	-5606171.0
16	15	14	42	439	231.0	-26966.0	755.0	-5605695.0
16	15	14	42	440	232.0	-29959.0	193.0	-5606846.0
16	15	14	42	440	234.0	-27299.0	658.0	-5606009.0
16	15	14	42	440	235.0	-3340.0	-19.0	-5606237.0
16	15	14	42	441	236.0	26272.0	-1814.0	-5607576.0
16	15	14	42	441	237.0	63066.0	-2562.0	-5607027.0
16	15	14	42	441	238.0	76426.0	-2857.0	-5606209.0
16	15	14	42	442	239.0	103674.0	-2367.0	-5606904.0
16	15	14	42	442	240.0	127756.0	-2323.0	-5608062.0
16	15	14	42	476	241.0	161921.0	-2837.0	-5607347.0
16	15	14	42	477	242.0	174786.0	-1589.0	-5606510.0
16	15	14	42	477	243.0	174752.0	337.0	-5606342.0
16	15	14	42	478	244.0	167908.0	844.0	-5607648.0
16	15	14	42	478	245.0	145444.0	1712.0	-5607156.0
16	15	14	42	478	246.0	138116.0	1718.0	-5606351.0
16	15	14	42	479	247.0	135254.0	1759.0	-5606259.0
16	15	14	42	479	248.0	166865.0	2165.0	-5607175.0
16	15	14	42	479	249.0	174884.0	2583.0	-5606583.0
16	15	14	42	480	250.0	147016.0	2500.0	-5606191.0
16	15	14	42	480	251.0	-26562.0	3243.0	-5607505.0
16	15	14	42	480	252.0	-431569.0	3179.0	-5607319.0
16	15	14	42	481	253.0	-836683.0	3170.0	-5606435.0
16	15	14	42	481	254.0	-1028152.0	3179.0	-5606627.0
16	15	14	42	482	255.0	-956034.0	3528.0	-5607645.0
16	15	14	42	482	1.0	-385504.0	4563.0	-5606288.0
16	15	14	42	482	2.0	-11995.0	2087.0	-5606707.0
16	15	14	42	483	3.0	328791.0	1180.0	-5607942.0
16	15	14	42	483	4.0	545283.0	999.0	-5607384.0
16	15	14	42	483	5.0	641212.0	953.0	-5606504.0
16	15	14	42	483	6.0	663245.0	896.0	-5606350.0
16	15	14	42	515	7.0	589242.0	756.0	-5607646.0
16	15	14	42	516	8.0	402203.0	1173.0	-5607357.0
16	15	14	42	516	9.0	64515.0	3411.0	-5606429.0
16	15	14	42	516	10.0	-288429.0	5018.0	-5606491.0
16	15	14	42	517	11.0	-560905.0	5508.0	-5607812.0
16	15	14	42	517	12.0	-605298.0	5588.0	-5607361.0
16	15	14	42	517	13.0	-331414.0	5671.0	-5606487.0
16	15	14	42	518	14.0	79109.0	6378.0	-5606671.0
16	15	14	42	518	15.0	381333.0	6926.0	-5607706.0
16	15	14	42	518	16.0	459384.0	6534.0	-5607166.0
16	15	14	42	518	17.0	401706.0	7271.0	-5606294.0
16	15	14	42	519	18.0	255200.0	7223.0	-5606686.0
16	15	14	42	519	19.0	127604.0	6994.0	-5607538.0
16	15	14	42	519	20.0	61301.0	6884.0	-5606906.0
16	15	14	42	519	21.0	68428.0	6492.0	-5606066.0
16	15	14	42	520	23.0	189404.0	6686.0	-5607674.0
16	15	14	42	520	24.0	236222.0	5579.0	-5607036.0
16	15	14	42	520	25.0	201079.0	4050.0	-5606224.0
16	15	14	42	521	26.0	132948.0	3981.0	-5607021.0
16	15	14	42	521	27.0	60147.0	3812.0	-5607680.0
16	15	14	42	521	28.0	10292.0	3635.0	-5606927.0
16	15	14	42	522	29.0	-25542.0	3764.0	-5606162.0
16	15	14	42	560	30.0	-42666.0	3533.0	-5606731.0
16	15	14	42	560	31.0	-33621.0	4435.0	-5606956.0
16	15	14	42	560	32.0	-8452.0	6488.0	-5606211.0
16	15	14	42	561	33.0	35185.0	6830.0	-5606549.0
16	15	14	42	561	34.0	68373.0	6439.0	-5607566.0
16	15	14	42	561	35.0	115196.0	6749.0	-5606796.0
16	15	14	42	562	36.0	141950.0	7311.0	-5605996.0
16	15	14	42	562	37.0	164268.0	7858.0	-5606595.0
16	15	14	42	562	38.0	153399.0	8133.0	-5607599.0
16	15	14	42	562	39.0	125489.0	7808.0	-5606877.0
16	15	14	42	563	40.0	77810.0	8198.0	-5606058.0
16	15	14	42	563	41.0	24602.0	8821.0	-5606662.0
16	15	14	42	563	42.0	-17977.0	8874.0	-5607656.0
16	15	14	42	563	43.0	-42565.0	8728.0	-5606922.0
16	15	14	42	564	44.0	-14199.0	8981.0	-5606159.0
16	15	14	42	564	46.0	81910.0	7997.0	-5607789.0
16	15	14	42	564	47.0	125436.0	6414.0	-5607014.0
16	15	14	42	564	48.0	165118.0	5576.0	-5606301.0
16	15	14	42	565	49.0	184536.0	5781.0	-5607314.0
16	15	14	42	565	50.0	200722.0	5823.0	-5607662.0
16	15	14	42	565	51.0	216246.0	5734.0	-5606856.0
16	15	14	42	602	52.0	232663.0	5669.0	-5606046.0
16	15	14	42	603	53.0	244036.0	6080.0	-5606959.0
16	15	14	42	603	54.0	249391.0	7858.0	-5607628.0
16	15	14	42	604	55.0	247677.0	8320.0	-5606911.0
16	15	14	42	604	56.0	235533.0	8851.0	-5606167.0
16	15	14	42	604	57.0	216566.0	8919.0	-5607299.0
16	15	14	42	604	58.0	189661.0	9319.0	-5607914.0
16	15	14	42	605	59.0	180385.0	9308.0	-5607163.0
16	15	14	42	605	60.0	164954.0	9099.0	-5606504.0
16	15	14	42	605	61.0	161453.0	9436.0	-5607602.0
16	15	14	42	606	62.0	155104.0	9897.0	-5607590.0
16	15	14	42	606	63.0	157966.0	10599.0	-5606820.0
16	15	14	42	606	64.0	156878.0	10316.0	-5606303.0
16	15	14	42	606	65.0	151652.0	10242.0	-5607202.0
16	15	14	42	607	66.0	145678.0	10279.0	-5606802.0
16	15	14	42	607	68.0	120669.0	9346.0	-5607122.0
16	15	14	42	607	69.0	108483.0	7986.0	-5607375.0
16	15	14	42	608	70.0	98536.0	6611.0	-5606469.0
16	15	14	42	608	71.0	75846.0	6991.0	-5605887.0
16	15	14	42	608	72.0	53670.0	6787.0	-5606916.0
16	15	14	42	609	73.0	42080.0	6969.0	-5607226.0
16	15	14	42	646	74.0	39136.0	7464.0	-5606361.0
16	15	14	42	646	75.0	33934.0	8201.0	-5606104.0
16	15	14	42	647	76.0	18192.0	10509.0	-5607531.0
16	15	14	42	647	77.0	-9511.0	12264.0	-5607382.0
16	15	14	42	647	78.0	-27129.0	12761.0	-5606481.0
16	15	14	42	647	79.0	-27344.0	13766.0	-5606436.0
16	15	14	42	648	80.0	-14739.0	14951.0	-5607746.0
16	15	14	42	648	81.0	-13005.0	16267.0	-5607372.0
16	15	14	42	648	82.0	-23757.0	17738.0	-5606456.0
16	15	14	42	649	83.0	-44213.0	18701.0	-5606246.0
16	15	14	42	649	84.0	-56980.0	19566.0	-5607556.0
16	15	14	42	649	85.0	-69704.0	21193.0	-5607207.0
16	15	14	42	649	86.0	-95621.0	22074.0	-5606302.0
16	15	14	42	650	87.0	-101102.0	23164.0	-5606021.0
16	15	14	42	650	88.0	-13800.0	24359.0	-5607255.0
16	15	14	42	650	91.0	-55481.0	28891.0	-5606656.0
16	15	14	42	651	92.0	-84714.0	27933.0	-5607081.0
16	15	14	42	651	93.0	-48911.0	28502.0	-5606354.0
16	15	14	42	651	94.0	-12836.0	29511.0	-5605813.0
16	15	14	42	652	95.0	-13224.0	30404.0	-5607106.0
16	15	14	42	652	96.0	-45686.0	31616.0	-5607077.0
16	15	14	42	690	97.0	-51016.0	32573.0	-5606278.0
16	15	14	42	690	98.0	-28575.0	34097.0	-5606168.0
16	15	14	42	691	99.0	-7448.0	37263.0	-5607537.0
16	15	14	42	691	100.0	8243.0	38638.0	-5607109.0
16	15	14	42	691	101.0	10463.0	40315.0	-5606231.0
16	15	14	42	692	102.0	13480.0	41013.0	-5605957.0
16	15	14	42	692	103.0	15442.0	41385.0	-5607369.0
16	15	14	42	692	104.0	22831.0	42323.0	-5607179.0
16	15	14	42	693	105.0	35434.0	43196.0	-5606287.0
16	15	14	42	693	106.0	37802.0	44135.0	-5606071.0
16	15	14	42	693	107.0	29302.0	44582.0	-5607649.0
16	15	14	42	739	108.0	19834.0	45361.0	-5607528.0
16	15	14	42	739	109.0	16236.0	46549.0	-5606619.0
16	15	14	42	740	110.0	19166.0	47204.0	-5606540.0
16	15	14	42	740	111.0	20595.0	47576.0	-5607854.0
16	15	14	42	740	113.0	46462.0	47857.0	-5606583.0
16	15	14	42	741	114.0	80229.0	46456.0	-5606646.0
16	15	14	42	741	115.0	105864.0	45164.0	-5607811.0
16	15	14	42	741	116.0	129971.0	44908.0	-5607381.0
16	15	14	42	742	117.0	162509.0	44977.0	-5606475.0
16	15	14	42	742	118.0	181677.0	47176.0	-5606151.0
16	15	14	42	742	119.0	192193.0	48039.0	-5607404.0
16	15	14	42	742	120.0	193858.0	47500.0	-5607196.0
16	15	14	42	743	121.0	199453.0	47272.0	-5606300.0
16	15	14	42	743	122.0	202172.0	47035.0	-5606259.0
16	15	14	42	743	123.0	203788.0	46442.0	-5607557.0
16	15	14	42	744	135.0	161835.0	35426.0	-5606997.0
16	15	14	42	744	136.0	115948.0	34051.0	-5606169.0
16	15	14	42	744	137.0	-2051.0	30654.0	-5606164.0
16	15	14	42	744	138.0	-243171.0	28754.0	-5607499.0
16	15	14	42	745	139.0	-430481.0	27253.0	-5606960.0
16	15	14	42	745	140.0	-306737.0	25801.0	-5606190.0
16	15	14	42	745	141.0	-6502.0	24568.0	-5606794.0
16	15	14	42	788	142.0	240671.0	22985.0	-5607549.0
16	15	14	42	789	143.0	366175.0	22217.0	-5606783.0
16	15	14	42	789	144.0	334690.0	23066.0	-5606031.0
16	15	14	42	789	145.0	178076.0	22279.0	-5606734.0
16	15	14	42	790	146.0	63788.0	21167.0	-5607307.0
16	15	14	42	790	147.0	21699.0	20421.0	-5606475.0
16	15	14	42	790	148.0	-44553.0	19849.0	-5605777.0
16	15	14	42	791	149.0	-75333.0	18810.0	-5606949.0
16	15	14	42	791	150.0	-143404.0	17606.0	-5607177.0
16	15	14	42	791	151.0	-221431.0	16723.0	-5606374.0
16	15	14	42	792	152.0	-248659.0	15801.0	-5605726.0
16	15	14	42	792	153.0	-275599.0	14034.0	-5607061.0
16	15	14	42	792	154.0	-274674.0	12768.0	-5607365.0
16	15	14	42	792	155.0	-206409.0	11384.0	-5606614.0
16	15	14	42	793	156.0	-115302.0	10786.0	-5606163.0
16	15	14	42	793	158.0	37529.0	8428.0	-5607449.0
16	15	14	42	793	159.0	85281.0	5610.0	-5606666.0
16	15	14	42	794	160.0	119774.0	3232.0	-5606098.0
16	15	14	42	794	161.0	147913.0	1578.0	-5606904.0
16	15	14	42	794	162.0	154768.0	-164.0	-5606509.0
16	15	14	42	795	163.0	133732.0	-1329.0	-5605837.0
16	15	14	42	841	164.0	98879.0	-2501.0	-5606675.0
16	15	14	42	841	165.0	44053.0	-3056.0	-5607239.0
16	15	14	42	842	166.0	-25071.0	-2016.0	-5606346.0
16	15	14	42	842	167.0	-60743.0	-1447.0	-5605821.0
16	15	14	42	842	168.0	-60339.0	-1651.0	-5606977.0
16	15	14	42	843	169.0	-40287.0	-2367.0	-5607173.0
16	15	14	42	843	170.0	-10429.0	-3507.0	-5606286.0
16	15	14	42	843	171.0	16199.0	-4317.0	-5606092.0
16	15	14	42	844	172.0	43104.0	-4890.0	-5607359.0
16	15	14	42	844	173.0	59619.0	-5614.0	-5607081.0
16	15	14	42	844	174.0	64254.0	-6224.0	-5606179.0
16	15	14	42	844	175.0	66252.0	-7067.0	-5606024.0
16	15	14	42	845	176.0	56805.0	-7488.0	-5607326.0
16	15	14	42	845	177.0	41154.0	-8044.0	-5607022.0
16	15	14	42	845	178.0	19927.0	-8781.0	-5606114.0
16	15	14	42	845	180.0	-12644.0	-10267.0	-5607077.0
16	15	14	42	846	181.0	-24489.0	-11641.0	-5606737.0
16	15	14	42	846	182.0	-30859.0	-14318.0	-5605872.0
16	15	14	42	846	183.0	-26717.0	-15283.0	-5605859.0
16	15	14	42	847	184.0	-24876.0	-16336.0	-5607111.0
16	15	14	42	847	185.0	-14982.0	-17500.0	-5606613.0
16	15	14	42	847	186.0	5517.0	-17996.0	-5605832.0
16	15	14	42	897	187.0	38523.0	-18972.0	-5606162.0
16	15	14	42	897	188.0	82183.0	-18856.0	-5606564.0
16	15	14	42	898	189.0	123496.0	-17606.0	-5605862.0
16	15	14	42	898	190.0	169262.0	-17592.0	-5606527.0
16	15	14	42	899	191.0	213449.0	-17895.0	-5607389.0
16	15	14	42	899	192.0	235001.0	-18241.0	-5606600.0
16	15	14	42	900	193.0	238164.0	-17859.0	-5605841.0
16	15	14	42	900	194.0	224662.0	-18217.0	-5606487.0
16	15	14	42	900	195.0	204194.0	-18367.0	-5607273.0
16	15	14	42	901	196.0	172356.0	-18538.0	-5606524.0
16	15	14	42	901	197.0	137454.0	-19727.0	-5605692.0
16	15	14	42	902	198.0	110081.0	-19949.0	-5605968.0
16	15	14	42	902	199.0	110359.0	-19971.0	-5607105.0
16	15	14	42	902	200.0	132162.0	-20131.0	-5606496.0
16	15	14	42	903	201.0	151754.0	-20351.0	-5605650.0
16	15	14	42	903	203.0	164210.0	-21001.0	-5606967.0
16	15	14	42	903	204.0	152796.0	-23463.0	-5606415.0
16	15	14	42	904	205.0	130145.0	-25201.0	-5605631.0
16	15	14	42	904	206.0	110318.0	-26232.0	-5606451.0
16	15	14	42	905	207.0	98859.0	-27106.0	-5607067.0
16	15	14	42	905	208.0	91035.0	-27545.0	-5606325.0
16	15	14	42	905	209.0	89856.0	-27249.0	-5605597.0
16	15	14	42	906	210.0	83475.0	-26951.0	-5606686.0
16	15	14	42	906	211.0	84699.0	-24584.0	-5607016.0
16	15	14	42	906	212.0	85749.0	-23891.0	-5606244.0
16	15	14	42	907	213.0	84249.0	-23906.0	-5605422.0
16	15	14	42	907	214.0	73294.0	-24102.0	-5606317.0
16	15	14	42	907	215.0	47052.0	-23821.0	-5606916.0
16	15	14	42	908	216.0	25679.0	-23938.0	-5606166.0
16	15	14	42	908	217.0	7983.0	-24039.0	-5605380.0
16	15	14	42	950	218.0	-10647.0	-23136.0	-5606442.0
16	15	14	42	951	219.0	-23198.0	-22656.0	-5606789.0
16	15	14	42	952	220.0	-38040.0	-22761.0	-5606027.0
16	15	14	42	952	221.0	-46524.0	-22930.0	-5605633.0
16	15	14	42	952	222.0	-49304.0	-22941.0	-5607057.0
16	15	14	42	953	223.0	-42857.0	-21949.0	-5606746.0
16	15	14	42	953	225.0	-16165.0	-21994.0	-5605701.0
16	15	14	42	953	226.0	-8167.0	-22411.0	-5607174.0
16	15	14	42	954	227.0	-5986.0	-24233.0	-5606781.0
16	15	14	42	954	228.0	-7231.0	-24292.0	-5605960.0
16	15	14	42	954	229.0	1187.0	-24400.0	-5605792.0
16	15	14	42	955	230.0	21482.0	-24501.0	-5607150.0
16	15	14	42	955	231.0	43578.0	-23866.0	-5606687.0
16	15	14	42	955	232.0	56346.0	-23754.0	-5605870.0
16	15	14	42	956	233.0	64050.0	-22622.0	-5605934.0
16	15	14	42	956	234.0	71040.0	-20246.0	-5607356.0
16	15	14	42	956	235.0	77248.0	-19433.0	-5606849.0
16	15	14	42	957	236.0	70219.0	-18699.0	-5606069.0
16	15	14	42	957	237.0	61251.0	-18271.0	-5606724.0
16	15	14	42	957	238.0	50164.0	-17756.0	-5607806.0
16	15	14	42	957	239.0	49005.0	-17194.0	-5607102.0
16	15	14	42	958	240.0	54674.0	-16485.0	-5606297.0
16	15	14	42	958	241.0	60575.0	-16289.0	-5606812.0
16	15	14	42	958	242.0	75428.0	-15770.0	-5607982.0
16	15	14	42	959	243.0	85895.0	-14858.0	-5607280.0
16	15	14	42	959	244.0	98558.0	-14424.0	-5606397.0
16	15	14	42	959	245.0	101571.0	-14481.0	-5606396.0
16	15	14	42	960	246.0	100176.0	-13990.0	-5607561.0
16	15	14	42	960	248.0	87424.0	-13140.0	-5606202.0
16	15	14	42	960	249.0	85575.0	-14929.0	-5606729.0
16	15	14	42	960	250.0	80593.0	-15839.0	-5607526.0
16	15	14	42	961	251.0	73954.0	-15691.0	-5606871.0
16	15	14	42	961	252.0	85999.0	-15626.0	-5606047.0
16	15	14	42	962	253.0	87946.0	-15216.0	-5606765.0
16	15	14	43	27	254.0	95519.0	-14628.0	-5607514.0
16	15	14	43	72	255.0	88203.0	-14194.0	-5606828.0
16	15	14	43	73	0.0	65961.0	-11882.0	-5606102.0
16	15	14	43	73	1.0	53963.0	-10521.0	-5607209.0
16	15	14	43	74	2.0	36404.0	-9750.0	-5607573.0
16	15	14	43	74	3.0	45131.0	-8787.0	-5606794.0
16	15	14	43	74	4.0	55254.0	-8211.0	-5605959.0
16	15	14	43	75	5.0	70524.0	-8138.0	-5606817.0
16	15	14	43	75	6.0	89363.0	-7572.0	-5607449.0
16	15	14	43	75	7.0	97502.0	-6967.0	-5606711.0
16	15	14	43	76	8.0	110941.0	-6414.0	-5605850.0
16	15	14	43	76	9.0	101003.0	-6159.0	-5606524.0
16	15	14	43	76	10.0	106208.0	-6224.0	-5607274.0
16	15	14	43	77	11.0	103779.0	-5941.0	-5606557.0
16	15	14	43	77	12.0	104330.0	-6377.0	-5605832.0
16	15	14	43	77	37.0	25274.0	-3951.0	-5606836.0
16	15	14	43	78	38.0	44568.0	-5656.0	-5606065.0
16	15	14	43	78	39.0	50063.0	-6256.0	-5605510.0
16	15	14	43	78	40.0	63649.0	-6729.0	-5606790.0
16	15	14	43	79	41.0	61360.0	-6923.0	-5606700.0
16	15	14	43	79	42.0	61167.0	-6999.0	-5605931.0
16	15	14	43	79	43.0	45621.0	-6277.0	-5605749.0
16	15	14	43	80	44.0	43985.0	-5671.0	-5606352.0
16	15	14	43	139	45.0	38917.0	-4174.0	-5605697.0
16	15	14	43	140	46.0	43499.0	-3018.0	-5605387.0
16	15	14	43	140	47.0	44621.0	-2488.0	-5606776.0
16	15	14	43	140	48.0	45823.0	-2232.0	-5606560.0
16	15	14	43	141	49.0	47396.0	-1846.0	-5605724.0
16	15	14	43	141	50.0	43192.0	-1684.0	-5605632.0
16	15	14	43	141	51.0	44702.0	-1867.0	-5606898.0
16	15	14	43	142	52.0	36183.0	-1786.0	-5606471.0
16	15	14	43	142	53.0	30183.0	-2129.0	-5605564.0
16	15	14	43	142	54.0	15331.0	-1894.0	-5605396.0
16	15	14	43	142	55.0	4617.0	-1834.0	-5606816.0
16	15	14	43	143	56.0	-8948.0	-1937.0	-5606532.0
16	15	14	43	143	57.0	-8816.0	-1602.0	-5605626.0
16	15	14	43	143	59.0	-13446.0	-1561.0	-5606814.0
16	15	14	43	144	60.0	-17830.0	-2786.0	-5606669.0
16	15	14	43	144	61.0	-11274.0	-4432.0	-5605781.0
16	15	14	43	144	62.0	-4313.0	-4542.0	-5605969.0
16	15	14	43	145	63.0	311.0	-4470.0	-5607149.0
16	15	14	43	145	64.0	10154.0	-4229.0	-5606639.0
16	15	14	43	145	65.0	9663.0	-4332.0	-5605761.0
16	15	14	43	145	66.0	9067.0	-2821.0	-5605950.0
16	15	14	43	146	67.0	-6132.0	-1327.0	-5607027.0
16	15	14	43	146	68.0	-10238.0	-616.0	-5606464.0
16	15	14	43	146	69.0	-18739.0	177.0	-5605580.0
16	15	14	43	146	70.0	-21991.0	278.0	-5605703.0
16	15	14	43	147	71.0	-23845.0	525.0	-5607132.0
16	15	14	43	147	72.0	-19586.0	1145.0	-5606659.0
16	15	14	43	147	73.0	-14999.0	1541.0	-5605770.0
16	15	14	43	148	74.0	-16376.0	1574.0	-5605879.0
16	15	14	43	148	75.0	-15300.0	1789.0	-5607051.0
16	15	14	43	148	76.0	-22641.0	1921.0	-5606500.0
16	15	14	43	149	82.0	40898.0	1384.0	-5607184.0
16	15	14	43	149	83.0	85033.0	-354.0	-5606606.0
16	15	14	43	149	84.0	108986.0	-1269.0	-5605776.0
16	15	14	43	150	85.0	125383.0	-1391.0	-5605516.0
16	15	14	43	150	86.0	132089.0	-1317.0	-5606892.0
16	15	14	43	150	87.0	147445.0	-1238.0	-5606529.0
16	15	14	43	208	88.0	167495.0	-1295.0	-5605683.0
16	15	14	43	208	89.0	182444.0	-495.0	-5605782.0
16	15	14	43	208	90.0	183890.0	1736.0	-5606922.0
16	15	14	43	209	91.0	175141.0	1929.0	-5606362.0
16	15	14	43	209	92.0	153651.0	2221.0	-5605654.0
16	15	14	43	210	93.0	134824.0	2622.0	-5606760.0
16	15	14	43	210	94.0	121763.0	3274.0	-5607437.0
16	15	14	43	210	95.0	134311.0	3113.0	-5606650.0
16	15	14	43	210	96.0	131889.0	3980.0	-5605856.0
16	15	14	43	211	97.0	102700.0	3952.0	-5606501.0
16	15	14	43	211	98.0	-11414.0	4798.0	-5607492.0
16	15	14	43	212	99.0	-320581.0	5021.0	-5606716.0
16	15	14	43	212	100.0	-775409.0	5156.0	-5605774.0
16	15	14	43	212	101.0	-1078410.0	5175.0	-5605934.0
16	15	14	43	212	102.0	-1106179.0	5149.0	-5607172.0
16	15	14	43	213	104.0	-494180.0	5461.0	-5605814.0
16	15	14	43	213	105.0	-32841.0	4411.0	-5606326.0
16	15	14	43	213	106.0	350943.0	2513.0	-5607708.0
16	15	14	43	214	107.0	579274.0	2498.0	-5607191.0
16	15	14	43	214	108.0	655222.0	2489.0	-5606354.0
16	15	14	43	214	109.0	664450.0	2324.0	-5606911.0
16	15	14	43	215	110.0	600040.0	2004.0	-5607683.0
16	15	14	43	215	111.0	461750.0	2293.0	-5606971.0
16	15	14	43	277	112.0	199815.0	3992.0	-5606162.0
16	15	14	43	278	113.0	-146549.0	5325.0	-5607206.0
16	15	14	43	278	114.0	-474986.0	5444.0	-5607534.0
16	15	14	43	278	115.0	-599939.0	5755.0	-5606742.0
16	15	14	43	279	116.0	-470337.0	6385.0	-5605979.0
16	15	14	43	279	117.0	-87590.0	7060.0	-5606807.0
16	15	14	43	279	118.0	337316.0	7529.0	-5606859.0
16	15	14	43	280	119.0	534454.0	7394.0	-5606111.0
16	15	14	43	280	120.0	459439.0	7291.0	-5606036.0
16	15	14	43	280	121.0	271024.0	7499.0	-5607259.0
16	15	14	43	280	122.0	82305.0	7644.0	-5606675.0
16	15	14	43	281	123.0	-39936.0	7642.0	-5606021.0
16	15	14	43	281	124.0	-81922.0	8034.0	-5606939.0
16	15	14	43	281	127.0	146285.0	8229.0	-5606052.0
16	15	14	43	282	128.0	191321.0	6023.0	-5606949.0
16	15	14	43	282	129.0	169142.0	5079.0	-5607560.0
16	15	14	43	282	130.0	85161.0	4571.0	-5606677.0
16	15	14	43	282	131.0	-8029.0	4376.0	-5605912.0
16	15	14	43	283	132.0	-79262.0	4551.0	-5606849.0
16	15	14	43	283	133.0	-114262.0	4756.0	-5607671.0
16	15	14	43	283	134.0	-122482.0	5708.0	-5606876.0
16	15	14	43	284	135.0	-97409.0	7586.0	-5606184.0
16	15	14	43	284	136.0	-48867.0	7928.0	-5607114.0
16	15	14	43	284	137.0	8096.0	8307.0	-5607446.0
16	15	14	43	285	138.0	74423.0	9060.0	-5606623.0
16	15	14	43	285	139.0	137455.0	9043.0	-5606269.0
16	15	14	43	285	140.0	191190.0	9156.0	-5607604.0
16	15	14	43	285	141.0	210615.0	9525.0	-5607352.0
16	15	14	43	286	142.0	198929.0	10042.0	-5606505.0
16	15	14	43	286	143.0	174220.0	10147.0	-5606095.0
16	15	14	43	286	144.0	142221.0	10106.0	-5607401.0
16	15	14	43	286	145.0	79243.0	9981.0	-5607104.0
16	15	14	43	287	146.0	22734.0	9587.0	-5606307.0
16	15	14	43	287	147.0	-6329.0	9718.0	-5605652.0
16	15	14	43	287	149.0	29489.0	10003.0	-5607124.0
16	15	14	43	288	150.0	77170.0	8748.0	-5606361.0
16	15	14	43	288	151.0	126459.0	7026.0	-5605798.0
16	15	14	43	288	152.0	166142.0	6729.0	-5606508.0
16	15	14	43	288	153.0	202976.0	5975.0	-5606067.0
16	15	14	43	289	154.0	218831.0	5703.0	-5605629.0
16	15	14	43	350	155.0	233310.0	5623.0	-5606945.0
16	15	14	43	350	156.0	241257.0	6009.0	-5606999.0
16	15	14	43	351	157.0	231210.0	8238.0	-5606120.0
16	15	14	43	351	158.0	207388.0	9301.0	-5605719.0
16	15	14	43	352	159.0	182489.0	9341.0	-5606833.0
16	15	14	43	352	160.0	161349.0	9718.0	-5606671.0
16	15	14	43	352	161.0	141515.0	9712.0	-5605729.0
16	15	14	43	353	162.0	138852.0	9917.0	-5605917.0
16	15	14	43	353	163.0	147022.0	9993.0	-5607100.0
16	15	14	43	353	164.0	160924.0	10111.0	-5606574.0
16	15	14	43	354	165.0	164211.0	10368.0	-5605649.0
16	15	14	43	354	166.0	152107.0	9734.0	-5605588.0
16	15	14	43	354	167.0	142708.0	9452.0	-5606884.0
16	15	14	43	354	168.0	124544.0	9470.0	-5606526.0
16	15	14	43	355	169.0	107696.0	9783.0	-5605639.0
16	15	14	43	355	171.0	86412.0	9587.0	-5606900.0
16	15	14	43	355	172.0	86063.0	9476.0	-5606497.0
16	15	14	43	356	173.0	79461.0	8038.0	-5605609.0
16	15	14	43	356	174.0	64595.0	7620.0	-5606161.0
16	15	14	43	356	175.0	44612.0	7508.0	-5606977.0
16	15	14	43	357	176.0	22346.0	7328.0	-5606292.0
16	15	14	43	357	177.0	-9423.0	7384.0	-5605530.0
16	15	14	43	357	178.0	-37654.0	7841.0	-5606045.0
16	15	14	43	357	179.0	-21944.0	8658.0	-5606069.0
16	15	14	43	358	180.0	15586.0	11309.0	-5605319.0
16	15	14	43	358	181.0	28644.0	12744.0	-5605430.0
16	15	14	43	358	182.0	-8061.0	14136.0	-5606688.0
16	15	14	43	359	183.0	-51912.0	15533.0	-5606066.0
16	15	14	43	359	184.0	-76653.0	16829.0	-5605321.0
16	15	14	43	359	185.0	-86874.0	17670.0	-5605911.0
16	15	14	43	359	186.0	-98271.0	19257.0	-5606656.0
16	15	14	43	360	187.0	-128131.0	19829.0	-5605897.0
16	15	14	43	360	188.0	-156529.0	21305.0	-5605187.0
16	15	14	43	360	189.0	-164795.0	22584.0	-5606142.0
16	15	14	43	361	190.0	-157246.0	23396.0	-5606714.0
16	15	14	43	361	191.0	-139681.0	25026.0	-5605916.0
16	15	14	43	362	192.0	-121142.0	26834.0	-5605368.0
16	15	14	43	362	194.0	-62704.0	28911.0	-5606660.0
16	15	14	43	362	195.0	-25798.0	28676.0	-5605793.0
16	15	14	43	363	196.0	12699.0	28844.0	-5605056.0
16	15	14	43	363	197.0	38552.0	30114.0	-5606158.0
16	15	14	43	364	198.0	50349.0	31460.0	-5606570.0
16	15	14	43	364	199.0	46657.0	32651.0	-5605774.0
16	15	14	43	424	200.0	39138.0	34106.0	-5605252.0
16	15	14	43	424	201.0	37126.0	35447.0	-5606727.0
16	15	14	43	425	202.0	44258.0	38049.0	-5606744.0
16	15	14	43	425	203.0	53036.0	39940.0	-5605956.0
16	15	14	43	426	204.0	55801.0	40928.0	-5605667.0
16	15	14	43	426	205.0	62392.0	42004.0	-5607049.0
16	15	14	43	499	206.0	75944.0	43563.0	-5606686.0
16	15	14	43	499	207.0	89794.0	44447.0	-5605889.0
16	15	14	43	499	208.0	93562.0	45710.0	-5605589.0
16	15	14	43	500	209.0	86816.0	46759.0	-5606323.0
16	15	14	43	500	210.0	79463.0	47463.0	-5605728.0
16	15	14	43	501	211.0	78326.0	48562.0	-5605047.0
16	15	14	43	501	212.0	78702.0	49130.0	-5606024.0
16	15	14	43	501	213.0	83088.0	49333.0	-5606449.0
16	15	14	43	502	214.0	87793.0	49727.0	-5605573.0
16	15	14	43	502	216.0	91651.0	50481.0	-5606152.0
16	15	14	43	502	217.0	86281.0	50451.0	-5606487.0
16	15	14	43	503	218.0	86820.0	48051.0	-5605604.0
16	15	14	43	503	219.0	93745.0	47911.0	-5605167.0
16	15	14	43	503	220.0	102173.0	49759.0	-5606552.0
16	15	14	43	504	221.0	117525.0	49649.0	-5606670.0
16	15	14	43	504	239.0	162698.0	35334.0	-5605908.0
16	15	14	43	504	240.0	100102.0	32314.0	-5607058.0
16	15	14	43	504	241.0	-30191.0	29878.0	-5606511.0
16	15	14	43	505	242.0	-272083.0	28296.0	-5605604.0
16	15	14	43	505	243.0	-458966.0	26679.0	-5605659.0
16	15	14	43	505	244.0	-309596.0	25224.0	-5606743.0
16	15	14	43	506	245.0	43268.0	23576.0	-5606196.0
16	15	14	43	506	246.0	317546.0	22426.0	-5605372.0
16	15	14	43	506	247.0	453415.0	23382.0	-5605746.0
16	15	14	43	506	248.0	366289.0	23234.0	-5607126.0
16	15	14	43	507	249.0	128476.0	22436.0	-5606456.0
16	15	14	43	507	250.0	-57330.0	21567.0	-5605644.0
16	15	14	43	507	251.0	-130137.0	20007.0	-5605896.0
16	15	14	43	507	252.0	-147177.0	17900.0	-5606477.0
16	15	14	43	508	253.0	-173512.0	16832.0	-5605768.0
16	15	14	43	508	254.0	-221735.0	15997.0	-5605871.0
16	15	14	43	508	255.0	-271927.0	14729.0	-5607079.0
16	15	14	43	509	0.0	-300677.0	13484.0	-5606461.0
16	15	14	43	509	1.0	-304224.0	12006.0	-5605639.0
16	15	14	43	509	2.0	-274074.0	10129.0	-5605757.0
16	15	14	43	509	3.0	-216219.0	9547.0	-5606882.0
16	15	14	43	510	5.0	-51475.0	8039.0	-5605432.0
16	15	14	43	510	6.0	18541.0	6200.0	-5605851.0
16	15	14	43	510	7.0	83073.0	2536.0	-5607164.0
16	15	14	43	510	8.0	109893.0	874.0	-5606606.0
16	15	14	43	511	9.0	106761.0	14.0	-5605744.0
16	15	14	43	511	10.0	63067.0	-1192.0	-5606007.0
16	15	14	43	512	11.0	18813.0	-2592.0	-5606972.0
16	15	14	43	592	12.0	-18719.0	-3796.0	-5606349.0
16	15	14	43	593	13.0	-57292.0	-4305.0	-5605587.0
16	15	14	43	593	14.0	-73775.0	-3121.0	-5606556.0
16	15	14	43	593	15.0	-85559.0	-3176.0	-5606821.0
16	15	14	43	594	16.0	-64879.0	-4102.0	-5606071.0
16	15	14	43	594	17.0	-39968.0	-5166.0	-5605549.0
16	15	14	43	594	18.0	-14449.0	-5765.0	-5606466.0
16	15	14	43	594	19.0	12636.0	-6372.0	-5606040.0
16	15	14	43	595	20.0	27852.0	-7055.0	-5605272.0
16	15	14	43	595	21.0	47891.0	-7631.0	-5605426.0
16	15	14	43	595	22.0	53299.0	-8413.0	-5606523.0
16	15	14	43	595	23.0	62459.0	-9411.0	-5605830.0
16	15	14	43	596	24.0	67624.0	-9997.0	-5605168.0
16	15	14	43	596	25.0	79115.0	-10431.0	-5606112.0
16	15	14	43	596	26.0	89431.0	-11245.0	-5607018.0
16	15	14	43	597	28.0	114287.0	-12301.0	-5605597.0
16	15	14	43	597	29.0	120021.0	-14662.0	-5606521.0
16	15	14	43	597	30.0	131244.0	-16341.0	-5606757.0
16	15	14	43	597	31.0	136420.0	-17162.0	-5605893.0
16	15	14	43	598	32.0	143972.0	-18233.0	-5605406.0
16	15	14	43	600	33.0	148322.0	-19531.0	-5606613.0
16	15	14	43	601	34.0	149562.0	-20449.0	-5606815.0
16	15	14	43	602	35.0	152218.0	-20838.0	-5605910.0
16	15	14	43	602	36.0	148457.0	-19702.0	-5605519.0
16	15	14	43	603	37.0	153084.0	-19397.0	-5606826.0
16	15	14	43	603	38.0	157448.0	-19836.0	-5606751.0
16	15	14	43	604	39.0	158704.0	-20269.0	-5605864.0
16	15	14	43	604	40.0	154206.0	-20575.0	-5605407.0
16	15	14	43	605	41.0	143544.0	-20458.0	-5606802.0
16	15	14	43	605	42.0	137913.0	-20511.0	-5606869.0
16	15	14	43	605	43.0	138778.0	-20920.0	-5606019.0
16	15	14	43	606	44.0	132106.0	-21579.0	-5605716.0
16	15	14	43	606	45.0	111949.0	-21904.0	-5607107.0
16	15	14	43	607	46.0	102655.0	-22632.0	-5606904.0
16	15	14	43	607	47.0	104606.0	-22977.0	-5606022.0
16	15	14	43	608	48.0	107003.0	-23089.0	-5605987.0
16	15	14	43	608	50.0	112802.0	-23716.0	-5606687.0
16	15	14	43	609	51.0	105062.0	-24605.0	-5605827.0
16	15	14	43	609	52.0	88307.0	-26906.0	-5605310.0
16	15	14	43	610	53.0	55486.0	-27901.0	-5606706.0
16	15	14	43	611	54.0	28308.0	-28257.0	-5606556.0
16	15	14	43	611	55.0	2902.0	-28941.0	-5605758.0
16	15	14	43	612	56.0	-11257.0	-29227.0	-5605524.0
16	15	14	43	612	57.0	-20396.0	-29115.0	-5606443.0
16	15	14	43	613	58.0	-41043.0	-28393.0	-5605897.0
16	15	14	43	613	59.0	-43518.0	-26740.0	-5605621.0
16	15	14	43	670	60.0	-37404.0	-26231.0	-5607097.0
16	15	14	43	671	61.0	-26461.0	-25605.0	-5606901.0
16	15	14	43	671	62.0	-13987.0	-25648.0	-5606069.0
16	15	14	43	672	63.0	-15291.0	-25692.0	-5605944.0
16	15	14	43	672	64.0	-5034.0	-25426.0	-5607199.0
16	15	14	43	672	65.0	-1322.0	-25398.0	-5606773.0
16	15	14	43	672	66.0	4759.0	-25373.0	-5605919.0
16	15	14	43	673	67.0	21188.0	-25617.0	-5605764.0
16	15	14	43	673	68.0	20916.0	-25061.0	-5606838.0
16	15	14	43	673	69.0	33808.0	-24602.0	-5606412.0
16	15	14	43	674	70.0	42710.0	-24543.0	-5605499.0
16	15	14	43	674	71.0	50822.0	-23913.0	-5605364.0
16	15	14	43	674	73.0	73683.0	-23096.0	-5606105.0
16	15	14	43	674	74.0	87375.0	-24959.0	-5605287.0
16	15	14	43	675	75.0	86169.0	-25449.0	-5606335.0
16	15	14	43	675	76.0	88671.0	-25442.0	-5606870.0
16	15	14	43	675	77.0	104104.0	-25393.0	-5606136.0
16	15	14	43	676	78.0	112459.0	-24981.0	-5605297.0
16	15	14	43	676	79.0	125798.0	-24617.0	-5606006.0
16	15	14	43	676	80.0	112728.0	-24103.0	-5606707.0
16	15	14	43	676	81.0	104931.0	-22111.0	-5605996.0
16	15	14	43	677	82.0	85896.0	-20826.0	-5605092.0
16	15	14	43	677	83.0	81116.0	-20270.0	-5605531.0
16	15	14	43	677	84.0	77201.0	-19591.0	-5606443.0
16	15	14	43	678	85.0	75551.0	-18668.0	-5605792.0
16	15	14	43	678	86.0	87001.0	-18266.0	-5604982.0
16	15	14	43	678	87.0	75515.0	-17697.0	-5605779.0
16	15	14	43	678	88.0	73736.0	-17462.0	-5606381.0
16	15	14	43	679	89.0	59505.0	-16939.0	-5605637.0
16	15	14	43	679	90.0	73586.0	-16445.0	-5604956.0
16	15	14	43	679	91.0	63447.0	-16424.0	-5605809.0
16	15	14	43	680	92.0	61649.0	-15827.0	-5605869.0
16	15	14	43	680	93.0	45584.0	-15180.0	-5605161.0
16	15	14	43	680	95.0	28956.0	-13847.0	-5606527.0
16	15	14	43	681	96.0	20925.0	-14799.0	-5605681.0
16	15	14	43	751	97.0	12602.0	-16559.0	-5605057.0
16	15	14	43	751	98.0	-846.0	-16584.0	-5606060.0
16	15	14	43	751	99.0	-7756.0	-15930.0	-5606502.0
16	15	14	43	751	100.0	-22426.0	-15507.0	-5605648.0
16	15	14	43	752	101.0	-33545.0	-15499.0	-5604867.0
16	15	14	43	752	102.0	-46932.0	-14806.0	-5605370.0
16	15	14	43	752	103.0	-47582.0	-13441.0	-5606284.0
16	15	14	43	752	104.0	-55540.0	-10996.0	-5605541.0
16	15	14	43	752	105.0	-57816.0	-10054.0	-5604727.0
16	15	14	43	752	106.0	-62235.0	-9779.0	-5605388.0
16	15	14	43	833	107.0	-58271.0	-8935.0	-5606195.0
16	15	14	43	833	108.0	-58531.0	-8051.0	-5605424.0
16	15	14	43	833	109.0	-48133.0	-7968.0	-5604824.0
16	15	14	43	833	110.0	-42789.0	-7407.0	-5606006.0
16	15	14	43	834	111.0	-32138.0	-7091.0	-5606094.0
16	15	14	43	834	112.0	-32875.0	-6923.0	-5605251.0
16	15	14	43	834	113.0	-32184.0	-6441.0	-5604706.0
16	15	14	43	835	114.0	-22064.0	-5899.0	-5605922.0
16	15	14	43	835	115.0	-12299.0	-5472.0	-5605832.0
16	15	14	43	835	116.0	2832.0	-5597.0	-5605026.0
16	15	14	43	835	140.0	82051.0	-1904.0	-5604698.0
16	15	14	43	835	141.0	88948.0	-3184.0	-5605746.0
16	15	14	43	836	142.0	95907.0	-5257.0	-5606189.0
16	15	14	43	836	143.0	95840.0	-5681.0	-5605363.0
16	15	14	43	836	144.0	107335.0	-5449.0	-5604657.0
16	15	14	43	836	145.0	117703.0	-5212.0	-5605717.0
16	15	14	43	837	146.0	122211.0	-5412.0	-5606122.0
16	15	14	43	837	147.0	112573.0	-5296.0	-5605293.0
16	15	14	43	837	148.0	104748.0	-4229.0	-5604484.0
16	15	14	43	837	149.0	106149.0	-1936.0	-5605312.0
16	15	14	43	838	150.0	107756.0	-911.0	-5605909.0
16	15	14	43	838	151.0	109138.0	-247.0	-5605153.0
16	15	14	43	838	152.0	110261.0	-494.0	-5604426.0
16	15	14	43	838	153.0	103678.0	-479.0	-5605462.0
16	15	14	43	839	154.0	95451.0	598.0	-5605761.0
16	15	14	43	839	155.0	89812.0	624.0	-5605009.0
16	15	14	43	839	156.0	81291.0	367.0	-5604887.0
16	15	14	43	839	157.0	65986.0	693.0	-5606443.0
16	15	14	43	840	158.0	54961.0	1116.0	-5606001.0
16	15	14	43	840	159.0	55519.0	679.0	-5605199.0
16	15	14	43	911	160.0	59509.0	1101.0	-5604713.0
16	15	14	43	911	161.0	63973.0	1655.0	-5605473.0
16	15	14	43	912	163.0	58051.0	1306.0	-5604362.0
16	15	14	43	912	164.0	56799.0	-1059.0	-5605497.0
16	15	14	43	912	165.0	52413.0	-2009.0	-5605841.0
16	15	14	43	912	166.0	50816.0	-2253.0	-5604922.0
16	15	14	43	913	167.0	46627.0	-2016.0	-5604481.0
16	15	14	43	913	168.0	45429.0	-132.0	-5605880.0
16	15	14	43	913	169.0	44732.0	1037.0	-5606002.0
16	15	14	43	913	170.0	39188.0	1014.0	-5605096.0
16	15	14	43	914	171.0	34291.0	1804.0	-5605166.0
16	15	14	43	914	172.0	34776.0	1979.0	-5606399.0
16	15	14	43	914	173.0	38231.0	2187.0	-5605942.0
16	15	14	43	914	174.0	48723.0	2496.0	-5605030.0
16	15	14	43	915	175.0	59588.0	3056.0	-5605046.0
16	15	14	43	915	185.0	74957.0	3721.0	-5605990.0
16	15	14	43	915	186.0	77674.0	2868.0	-5605159.0
16	15	14	43	915	187.0	77415.0	1505.0	-5605722.0
16	15	14	43	916	188.0	70307.0	1426.0	-5606646.0
16	15	14	43	916	189.0	56382.0	1289.0	-5605937.0
16	15	14	43	916	190.0	53296.0	821.0	-5605116.0
16	15	14	43	916	191.0	56235.0	836.0	-5605419.0
16	15	14	43	917	192.0	56356.0	1389.0	-5605824.0
16	15	14	43	917	193.0	42143.0	3114.0	-5605094.0
16	15	14	43	917	194.0	24038.0	4634.0	-5605152.0
16	15	14	43	917	195.0	9634.0	5034.0	-5606365.0
16	15	14	43	917	196.0	-4791.0	5148.0	-5605769.0
16	15	14	43	918	197.0	-22266.0	5271.0	-5604946.0
16	15	14	43	918	198.0	-29776.0	5391.0	-5604983.0
16	15	14	43	918	199.0	-28211.0	6346.0	-5606414.0
16	15	14	43	918	200.0	-24126.0	6625.0	-5605939.0
16	15	14	43	918	201.0	-18386.0	6724.0	-5605091.0
16	15	14	43	919	202.0	-14136.0	6901.0	-5604959.0
16	15	14	43	919	203.0	-4780.0	7109.0	-5606612.0
16	15	14	43	919	204.0	11251.0	7661.0	-5606335.0
16	15	14	43	919	205.0	18697.0	7698.0	-5605479.0
16	15	14	43	919	207.0	17376.0	7233.0	-5607059.0
16	15	14	43	920	208.0	14095.0	7054.0	-5606525.0
16	15	14	43	920	209.0	948.0	5115.0	-5605649.0
16	15	14	43	920	210.0	-22539.0	4715.0	-5605591.0
16	15	14	43	920	211.0	-57112.0	4515.0	-5606859.0
16	15	14	43	921	212.0	-90634.0	4124.0	-5606476.0
16	15	14	43	922	213.0	-118436.0	4192.0	-5605562.0
16	15	14	43	991	214.0	-134268.0	3989.0	-5605494.0
16	15	14	43	991	215.0	-137003.0	4446.0	-5606710.0
16	15	14	43	992	216.0	-117304.0	6872.0	-5606322.0
16	15	14	43	992	217.0	-80756.0	7758.0	-5605419.0
16	15	14	43	992	218.0	-32999.0	7958.0	-5605472.0
16	15	14	43	992	219.0	5279.0	7768.0	-5606702.0
16	15	14	43	993	220.0	24887.0	7766.0	-5606269.0
16	15	14	43	993	221.0	37934.0	7912.0	-5605422.0
16	15	14	43	993	222.0	51203.0	8322.0	-5606166.0
16	15	14	43	993	223.0	67621.0	8989.0	-5606939.0
16	15	14	43	993	224.0	90253.0	9488.0	-5606247.0
16	15	14	43	994	225.0	112978.0	9133.0	-5605371.0
16	15	14	43	994	226.0	136083.0	9068.0	-5606100.0
16	15	14	43	994	227.0	145006.0	9323.0	-5606821.0
16	15	14	43	994	228.0	140888.0	9620.0	-5606092.0
16	15	14	43	995	230.0	157767.0	9755.0	-5605611.0
16	15	14	43	995	231.0	162526.0	8085.0	-5606847.0
16	15	14	43	995	232.0	129478.0	6494.0	-5606234.0
16	15	14	43	995	233.0	44891.0	6024.0	-5605423.0
16	15	14	43	996	234.0	-209463.0	6053.0	-5606106.0
16	15	14	43	996	235.0	-634269.0	5940.0	-5606907.0
16	15	14	43	996	236.0	-967586.0	5769.0	-5606142.0
16	15	14	43	996	237.0	-1045129.0	6048.0	-5605556.0
16	15	14	43	996	238.0	-878649.0	7599.0	-5606785.0
16	15	14	43	997	239.0	-559665.0	8224.0	-5606946.0
16	15	14	43	997	240.0	-157757.0	8879.0	-5606150.0
16	15	14	43	997	241.0	229181.0	9730.0	-5605766.0
16	15	14	43	997	242.0	495769.0	9928.0	-5607131.0
16	15	14	43	998	243.0	640739.0	9911.0	-5607037.0
16	15	14	43	998	244.0	705683.0	10310.0	-5606135.0
16	15	14	43	998	245.0	698721.0	10085.0	-5605673.0
16	15	14	43	998	246.0	609334.0	9860.0	-5606870.0
16	15	14	43	999	247.0	373787.0	10269.0	-5606864.0
16	15	14	43	999	248.0	29170.0	10564.0	-5605941.0
16	15	14	43	999	249.0	-315908.0	11096.0	-5605624.0
16	15	14	44	0	250.0	-519078.0	11268.0	-5606874.0
16	15	14	44	0	252.0	-181760.0	10977.0	-5605844.0
16	15	14	44	0	253.0	227598.0	10243.0	-5605805.0
16	15	14	44	0	254.0	450870.0	8066.0	-5607083.0
16	15	14	44	1	255.0	383891.0	7611.0	-5606681.0
16	15	14	44	1	0.0	191331.0	7348.0	-5605737.0
16	15	14	44	1	1.0	12254.0	7168.0	-5605796.0
16	15	14	44	1	2.0	-53382.0	7117.0	-5607111.0
16	15	14	44	68	3.0	-9897.0	6978.0	-5606683.0
16	15	14	44	69	4.0	84802.0	7239.0	-5605774.0
16	15	14	44	69	5.0	181931.0	9800.0	-5605764.0
16	15	14	44	69	6.0	246464.0	10836.0	-5607252.0
16	15	14	44	69	7.0	252793.0	10320.0	-5606889.0
16	15	14	44	70	8.0	197971.0	10889.0	-5605988.0
16	15	14	44	70	9.0	88436.0	11234.0	-5606161.0
16	15	14	44	70	10.0	-13810.0	11158.0	-5607357.0
16	15	14	44	70	11.0	-72831.0	11831.0	-5606834.0
16	15	14	44	71	12.0	-91338.0	11596.0	-5605957.0
16	15	14	44	71	13.0	-79976.0	11771.0	-5606356.0
16	15	14	44	71	14.0	-59191.0	11678.0	-5607289.0
16	15	14	44	72	15.0	-24615.0	11496.0	-5606612.0
16	15	14	44	72	16.0	25252.0	11068.0	-5605819.0
16	15	14	44	72	17.0	83726.0	11096.0	-5606550.0
16	15	14	44	72	19.0	152546.0	11331.0	-5606316.0
16	15	14	44	73	20.0	155549.0	9559.0	-5605497.0
16	15	14	44	73	21.0	152975.0	8396.0	-5605752.0
16	15	14	44	73	22.0	146281.0	8000.0	-5606324.0
16	15	14	44	73	23.0	134986.0	7926.0	-5605607.0
16	15	14	44	74	24.0	107916.0	7699.0	-5605641.0
16	15	14	44	74	25.0	82953.0	7751.0	-5607006.0
16	15	14	44	74	26.0	68893.0	7831.0	-5606481.0
16	15	14	44	74	27.0	74017.0	9531.0	-5605741.0
16	15	14	44	74	28.0	91682.0	10383.0	-5606500.0
16	15	14	44	75	29.0	108566.0	10780.0	-5607152.0
16	15	14	44	75	30.0	116563.0	11423.0	-5606322.0
16	15	14	44	75	31.0	122258.0	11638.0	-5605648.0
16	15	14	44	75	32.0	134785.0	10997.0	-5606636.0
16	15	14	44	76	33.0	150531.0	11153.0	-5607007.0
16	15	14	44	76	34.0	164240.0	11250.0	-5606145.0
16	15	14	44	76	35.0	164815.0	11733.0	-5605411.0
16	15	14	44	76	36.0	165568.0	11987.0	-5606393.0
16	15	14	44	77	37.0	172221.0	11669.0	-5606727.0
16	15	14	44	150	38.0	166004.0	11326.0	-5605915.0
16	15	14	44	150	39.0	151404.0	10993.0	-5605229.0
16	15	14	44	150	41.0	101581.0	10341.0	-5606721.0
16	15	14	44	150	42.0	86788.0	9976.0	-5605940.0
16	15	14	44	151	43.0	67705.0	7753.0	-5605457.0
16	15	14	44	151	44.0	56528.0	6733.0	-5607027.0
16	15	14	44	151	45.0	32809.0	6568.0	-5607077.0
16	15	14	44	151	46.0	26111.0	6735.0	-5606306.0
16	15	14	44	152	47.0	13134.0	6468.0	-5605769.0
16	15	14	44	152	48.0	11331.0	6464.0	-5607160.0
16	15	14	44	233	49.0	-1359.0	6720.0	-5607145.0
16	15	14	44	233	50.0	12896.0	8871.0	-5606371.0
16	15	14	44	234	51.0	27404.0	9589.0	-5605949.0
16	15	14	44	322	52.0	55523.0	9948.0	-5607432.0
16	15	14	44	322	53.0	71733.0	10674.0	-5607161.0
16	15	14	44	322	54.0	92114.0	11300.0	-5606381.0
16	15	14	44	322	55.0	97652.0	11814.0	-5605795.0
16	15	14	44	323	56.0	93609.0	12294.0	-5607055.0
16	15	14	44	323	57.0	67876.0	12739.0	-5606946.0
16	15	14	44	323	58.0	37436.0	13249.0	-5606164.0
16	15	14	44	323	59.0	-1194.0	13967.0	-5606191.0
16	15	14	44	324	60.0	-20270.0	14934.0	-5607685.0
16	15	14	44	324	61.0	-28982.0	15681.0	-5607075.0
16	15	14	44	324	62.0	-25695.0	16590.0	-5606328.0
16	15	14	44	324	64.0	-37687.0	18259.0	-5608096.0
16	15	14	44	325	86.0	18278.0	45441.0	-5606436.0
16	15	14	44	325	87.0	27471.0	45693.0	-5607073.0
16	15	14	44	325	109.0	239348.0	45213.0	-5606410.0
16	15	14	44	325	131.0	12741.0	17798.0	-5608191.0
16	15	14	44	326	132.0	-2495.0	16028.0	-5607440.0
16	15	14	44	326	133.0	-52602.0	12194.0	-5606630.0
16	15	14	44	326	134.0	-119169.0	10186.0	-5607331.0
16	15	14	44	326	135.0	-175129.0	8516.0	-5607804.0
16	15	14	44	327	136.0	-236981.0	7095.0	-5607042.0
16	15	14	44	327	137.0	-283354.0	5908.0	-5606264.0
16	15	14	44	327	138.0	-264737.0	4496.0	-5606892.0
16	15	14	44	327	139.0	-201483.0	4317.0	-5607006.0
16	15	14	44	327	140.0	-125103.0	4583.0	-5606326.0
16	15	14	44	328	141.0	-39323.0	3961.0	-5607088.0
16	15	14	44	328	142.0	31635.0	2693.0	-5607869.0
16	15	14	44	328	143.0	69456.0	1521.0	-5607049.0
16	15	14	44	328	144.0	92663.0	705.0	-5606421.0
16	15	14	44	329	145.0	89299.0	-105.0	-5607470.0
16	15	14	44	329	146.0	71299.0	-694.0	-5607947.0
16	15	14	44	329	147.0	41303.0	-1617.0	-5607024.0
16	15	14	44	330	148.0	2749.0	-2657.0	-5606334.0
16	15	14	44	330	149.0	-29246.0	-3484.0	-5607341.0
16	15	14	44	330	150.0	-51493.0	-4304.0	-5608006.0
16	15	14	44	330	151.0	-55299.0	-4941.0	-5607196.0
16	15	14	44	331	152.0	-51748.0	-5943.0	-5606481.0
16	15	14	44	331	154.0	-28041.0	-7832.0	-5607889.0
16	15	14	44	331	155.0	-5920.0	-10572.0	-5607102.0
16	15	14	44	332	156.0	22731.0	-12411.0	-5606662.0
16	15	14	44	332	157.0	39729.0	-13654.0	-5607974.0
16	15	14	44	332	158.0	46565.0	-14746.0	-5608004.0
16	15	14	44	332	159.0	44365.0	-15578.0	-5607138.0
16	15	14	44	410	160.0	52033.0	-15859.0	-5606750.0
16	15	14	44	410	161.0	64380.0	-16279.0	-5608226.0
16	15	14	44	411	162.0	75364.0	-15156.0	-5608181.0
16	15	14	44	411	163.0	86743.0	-14774.0	-5607311.0
16	15	14	44	411	164.0	96772.0	-15133.0	-5606551.0
16	15	14	44	411	165.0	101436.0	-15956.0	-5607419.0
16	15	14	44	412	166.0	93378.0	-17194.0	-5607865.0
16	15	14	44	412	167.0	84899.0	-17307.0	-5607065.0
16	15	14	44	412	168.0	77263.0	-17571.0	-5606504.0
16	15	14	44	412	169.0	70274.0	-17931.0	-5607833.0
16	15	14	44	413	170.0	64959.0	-18031.0	-5607812.0
16	15	14	44	413	171.0	57125.0	-18748.0	-5607035.0
16	15	14	44	413	172.0	54610.0	-19498.0	-5607137.0
16	15	14	44	413	173.0	59469.0	-20401.0	-5608031.0
16	15	14	44	414	174.0	66976.0	-20946.0	-5607386.0
16	15	14	44	414	176.0	92556.0	-20672.0	-5607891.0
16	15	14	44	414	177.0	102033.0	-22479.0	-5608205.0
16	15	14	44	414	178.0	99341.0	-24697.0	-5607352.0
16	15	14	44	415	179.0	84469.0	-25899.0	-5606675.0
16	15	14	44	415	180.0	68287.0	-27039.0	-5607711.0
16	15	14	44	415	181.0	49974.0	-27594.0	-5608157.0
16	15	14	44	415	182.0	34199.0	-27969.0	-5607290.0
16	15	14	44	416	183.0	21964.0	-28169.0	-5606759.0
16	15	14	44	416	184.0	11600.0	-27374.0	-5608009.0
16	15	14	44	416	185.0	-84.0	-25790.0	-5608203.0
16	15	14	44	416	186.0	-7967.0	-25885.0	-5607296.0
16	15	14	44	417	187.0	-13902.0	-26062.0	-5607034.0
16	15	14	44	417	188.0	-26876.0	-25861.0	-5608317.0
16	15	14	44	417	189.0	-45369.0	-25246.0	-5608121.0
16	15	14	44	417	190.0	-58074.0	-25421.0	-5607201.0
16	15	14	44	418	191.0	-68166.0	-25740.0	-5607004.0
16	15	14	44	418	192.0	-74003.0	-25671.0	-5608274.0
16	15	14	44	418	193.0	-88087.0	-25683.0	-5607970.0
16	15	14	44	418	194.0	-100489.0	-25871.0	-5607029.0
16	15	14	44	419	195.0	-112523.0	-25870.0	-5606877.0
16	15	14	44	419	196.0	-124537.0	-25649.0	-5608301.0
16	15	14	44	419	197.0	-131513.0	-25304.0	-5608027.0
16	15	14	44	419	199.0	-106842.0	-25379.0	-5607086.0
16	15	14	44	420	200.0	-94901.0	-27161.0	-5608187.0
16	15	14	44	420	201.0	-90420.0	-28036.0	-5607687.0
16	15	14	44	420	202.0	-81132.0	-28437.0	-5606893.0
16	15	14	44	420	203.0	-69319.0	-28224.0	-5607568.0
16	15	14	44	421	204.0	-53260.0	-28125.0	-5608316.0
16	15	14	44	495	205.0	-37489.0	-28162.0	-5607571.0
16	15	14	44	495	206.0	-27696.0	-26980.0	-5606768.0
16	15	14	44	495	207.0	-14134.0	-25094.0	-5607131.0
16	15	14	44	496	208.0	1696.0	-24111.0	-5607395.0
16	15	14	44	496	209.0	15114.0	-23658.0	-5606702.0
16	15	14	44	496	210.0	26053.0	-23284.0	-5607277.0
16	15	14	44	497	211.0	30334.0	-22886.0	-5608021.0
16	15	14	44	497	212.0	37272.0	-22296.0	-5607206.0
16	15	14	44	497	213.0	43887.0	-22193.0	-5606425.0
16	15	14	44	497	214.0	47983.0	-21087.0	-5606870.0
16	15	14	44	498	215.0	50129.0	-20301.0	-5607946.0
16	15	14	44	498	216.0	49514.0	-19893.0	-5607268.0
16	15	14	44	498	217.0	50639.0	-19499.0	-5606481.0
16	15	14	44	499	218.0	52248.0	-18887.0	-5607078.0
16	15	14	44	499	219.0	60486.0	-18434.0	-5608112.0
16	15	14	44	499	221.0	74528.0	-17918.0	-5606691.0
16	15	14	44	499	222.0	80681.0	-18873.0	-5607710.0
16	15	14	44	500	223.0	73248.0	-20469.0	-5608111.0
16	15	14	44	500	224.0	67737.0	-20495.0	-5607313.0
16	15	14	44	500	225.0	63203.0	-20448.0	-5606544.0
16	15	14	44	500	226.0	53356.0	-20526.0	-5607532.0
16	15	14	44	500	227.0	37466.0	-20363.0	-5608023.0
16	15	14	44	501	228.0	19269.0	-20049.0	-5607257.0
16	15	14	44	501	229.0	9868.0	-17386.0	-5606450.0
16	15	14	44	501	230.0	11402.0	-15594.0	-5607539.0
16	15	14	44	501	231.0	20609.0	-15013.0	-5608093.0
16	15	14	44	502	232.0	31499.0	-14017.0	-5607341.0
16	15	14	44	502	233.0	36455.0	-13780.0	-5606529.0
16	15	14	44	502	234.0	29628.0	-12833.0	-5607528.0
16	15	14	44	502	235.0	28156.0	-12171.0	-5608069.0
16	15	14	44	503	236.0	32058.0	-11966.0	-5607338.0
16	15	14	44	503	237.0	43702.0	-11105.0	-5606834.0
16	15	14	44	503	238.0	56491.0	-11172.0	-5608232.0
16	15	14	44	503	239.0	61676.0	-10542.0	-5608054.0
16	15	14	44	504	240.0	64852.0	-10001.0	-5607278.0
16	15	14	44	504	241.0	71510.0	-9769.0	-5606627.0
16	15	14	44	504	244.0	92593.0	-8858.0	-5606509.0
16	15	14	44	504	245.0	104403.0	-10640.0	-5607087.0
16	15	14	44	504	246.0	109081.0	-11345.0	-5607924.0
16	15	14	44	505	247.0	102325.0	-10990.0	-5607104.0
16	15	14	44	505	248.0	95374.0	-11317.0	-5606359.0
16	15	14	44	505	249.0	96031.0	-11438.0	-5607009.0
16	15	14	44	580	250.0	104452.0	-11095.0	-5607904.0
16	15	14	44	580	251.0	113061.0	-9971.0	-5607132.0
16	15	14	44	581	252.0	124529.0	-7771.0	-5606619.0
16	15	14	44	581	253.0	135375.0	-6725.0	-5607911.0
16	15	14	44	581	254.0	153329.0	-6211.0	-5608115.0
16	15	14	44	582	255.0	167278.0	-5487.0	-5607236.0
16	15	14	44	582	0.0	174368.0	-5114.0	-5606655.0
16	15	14	44	582	1.0	174656.0	-4570.0	-5607870.0
16	15	14	44	582	2.0	163288.0	-4261.0	-5608212.0
16	15	14	44	583	3.0	145233.0	-3858.0	-5607327.0
16	15	14	44	583	4.0	131333.0	-3875.0	-5606665.0
16	15	14	44	583	5.0	121789.0	-3799.0	-5607938.0
16	15	14	44	583	6.0	112187.0	-3661.0	-5608495.0
16	15	14	44	584	7.0	100296.0	-3800.0	-5607673.0
16	15	14	44	584	8.0	83992.0	-3402.0	-5606881.0
16	15	14	44	584	10.0	55184.0	-3127.0	-5608492.0
16	15	14	44	584	11.0	40739.0	-4614.0	-5607757.0
16	15	14	44	585	12.0	22384.0	-6310.0	-5607104.0
16	15	14	44	585	13.0	2297.0	-6466.0	-5608181.0
16	15	14	44	585	14.0	-9477.0	-4934.0	-5608380.0
16	15	14	44	586	15.0	-9165.0	-3579.0	-5607595.0
16	15	14	44	586	16.0	-919.0	-3199.0	-5606989.0
16	15	14	44	586	17.0	-5770.0	-3646.0	-5608216.0
16	15	14	44	586	32.0	-38193.0	-1280.0	-5608291.0
16	15	14	44	586	33.0	-36574.0	-1577.0	-5608543.0
16	15	14	44	587	34.0	-34365.0	-3479.0	-5607644.0
16	15	14	44	587	35.0	-33364.0	-3747.0	-5606986.0
16	15	14	44	587	36.0	-31487.0	-3346.0	-5607909.0
16	15	14	44	588	37.0	-32126.0	-3478.0	-5608550.0
16	15	14	44	588	38.0	-31972.0	-3651.0	-5607680.0
16	15	14	44	672	39.0	-39487.0	-3622.0	-5607019.0
16	15	14	44	672	40.0	-43566.0	-3292.0	-5607916.0
16	15	14	44	672	41.0	-37134.0	-988.0	-5608533.0
16	15	14	44	673	42.0	-31743.0	32.0	-5607686.0
16	15	14	44	673	43.0	-25985.0	229.0	-5607312.0
16	15	14	44	673	44.0	-22129.0	202.0	-5608527.0
16	15	14	44	674	45.0	-26392.0	-61.0	-5608439.0
16	15	14	44	674	46.0	-19209.0	287.0	-5607542.0
16	15	14	44	674	47.0	-8633.0	769.0	-5607183.0
16	15	14	44	675	48.0	4285.0	870.0	-5608614.0
16	15	14	44	675	49.0	8012.0	926.0	-5608563.0
16	15	14	44	675	50.0	6306.0	1043.0	-5607690.0
16	15	14	44	675	51.0	18410.0	1111.0	-5607161.0
16	15	14	44	676	52.0	35648.0	983.0	-5608408.0
16	15	14	44	676	53.0	55218.0	765.0	-5608413.0
16	15	14	44	676	55.0	87323.0	1533.0	-5607178.0
16	15	14	44	676	56.0	104069.0	164.0	-5608511.0
16	15	14	44	677	57.0	127211.0	-1270.0	-5608267.0
16	15	14	44	677	58.0	152464.0	-1857.0	-5607472.0
16	15	14	44	677	59.0	174594.0	-1918.0	-5607469.0
16	15	14	44	677	60.0	193593.0	-1347.0	-5608728.0
16	15	14	44	678	61.0	202849.0	-1274.0	-5608196.0
16	15	14	44	678	62.0	203752.0	-1211.0	-5607381.0
16	15	14	44	678	63.0	197319.0	931.0	-5607724.0
16	15	14	44	679	64.0	185204.0	2367.0	-5608684.0
16	15	14	44	679	65.0	164944.0	2524.0	-5607964.0
16	15	14	44	679	66.0	139176.0	2839.0	-5607189.0
16	15	14	44	679	67.0	113818.0	3083.0	-5607576.0
16	15	14	44	680	68.0	93492.0	3721.0	-5608706.0
16	15	14	44	680	69.0	79678.0	4267.0	-5607961.0
16	15	14	44	680	70.0	68344.0	3594.0	-5607262.0
16	15	14	44	680	71.0	59297.0	4074.0	-5607989.0
16	15	14	44	681	72.0	50394.0	4109.0	-5608688.0
16	15	14	44	681	73.0	42248.0	4365.0	-5607843.0
16	15	14	44	681	74.0	30336.0	4415.0	-5607456.0
16	15	14	44	682	75.0	12774.0	4524.0	-5608666.0
16	15	14	44	682	77.0	-13119.0	4370.0	-5607675.0
16	15	14	44	682	78.0	-16508.0	3644.0	-5607406.0
16	15	14	44	683	79.0	-28099.0	1555.0	-5608716.0
16	15	14	44	683	80.0	-37361.0	991.0	-5608522.0
16	15	14	44	683	81.0	-39763.0	1228.0	-5607602.0
16	15	14	44	684	82.0	-39152.0	823.0	-5607317.0
16	15	14	44	684	83.0	-44871.0	803.0	-5608592.0
16	15	14	44	752	84.0	-52535.0	831.0	-5608391.0
16	15	14	44	753	85.0	-52318.0	1626.0	-5607502.0
16	15	14	44	753	86.0	-47795.0	3571.0	-5607261.0
16	15	14	44	753	87.0	-45808.0	4161.0	-5608771.0
16	15	14	44	754	88.0	-43304.0	5102.0	-5608646.0
16	15	14	44	754	89.0	-36355.0	5679.0	-5607754.0
16	15	14	44	754	90.0	-31876.0	6274.0	-5607352.0
16	15	14	44	755	91.0	-30967.0	6528.0	-5608732.0
16	15	14	44	755	92.0	-38249.0	6691.0	-5608675.0
16	15	14	44	755	93.0	-50960.0	6429.0	-5607812.0
16	15	14	44	755	94.0	-62504.0	6883.0	-5607989.0
16	15	14	44	756	95.0	-80459.0	7399.0	-5609182.0
16	15	14	44	756	96.0	-93372.0	7146.0	-5608619.0
16	15	14	44	756	97.0	-96582.0	7521.0	-5607754.0
16	15	14	44	756	98.0	-88858.0	7420.0	-5608037.0
16	15	14	44	757	100.0	-7049.0	7306.0	-5608518.0
16	15	14	44	757	101.0	8562.0	5588.0	-5607690.0
16	15	14	44	757	102.0	17325.0	4394.0	-5607899.0
16	15	14	44	757	103.0	37663.0	4088.0	-5608984.0
16	15	14	44	758	104.0	85738.0	4045.0	-5608321.0
16	15	14	44	758	105.0	130966.0	4087.0	-5607518.0
16	15	14	44	758	106.0	162214.0	4139.0	-5607432.0
16	15	14	44	759	107.0	181679.0	4645.0	-5608339.0
16	15	14	44	759	108.0	197708.0	7008.0	-5607759.0
16	15	14	44	759	109.0	214125.0	7908.0	-5607876.0
16	15	14	44	759	110.0	230338.0	8337.0	-5609097.0
16	15	14	44	760	111.0	248164.0	8424.0	-5608508.0
16	15	14	44	760	112.0	265666.0	8849.0	-5607698.0
16	15	14	44	760	113.0	277353.0	8996.0	-5608293.0
16	15	14	44	760	114.0	220455.0	9271.0	-5609218.0
16	15	14	44	761	115.0	96644.0	9202.0	-5608467.0
16	15	14	44	761	116.0	2643.0	9184.0	-5607556.0
16	15	14	44	761	117.0	-172502.0	9077.0	-5607586.0
16	15	14	44	762	118.0	-525490.0	9294.0	-5608746.0
16	15	14	44	762	119.0	-874704.0	9051.0	-5608227.0
16	15	14	44	762	120.0	-1006231.0	9173.0	-5607311.0
16	15	14	44	763	122.0	-788678.0	8738.0	-5608791.0
16	15	14	44	763	123.0	-552099.0	8222.0	-5608306.0
16	15	14	44	763	124.0	-230585.0	6546.0	-5607502.0
16	15	14	44	763	125.0	135966.0	6188.0	-5608472.0
16	15	14	44	764	126.0	459180.0	5618.0	-5609188.0
16	15	14	44	764	127.0	685032.0	5603.0	-5608474.0
16	15	14	44	764	128.0	775099.0	5224.0	-5607589.0
16	15	14	44	837	129.0	719164.0	5192.0	-5608261.0
16	15	14	44	838	130.0	519886.0	6128.0	-5608937.0
16	15	14	44	838	131.0	206914.0	8038.0	-5608161.0
16	15	14	44	838	132.0	-130970.0	8788.0	-5607217.0
16	15	14	44	839	133.0	-393683.0	8588.0	-5607846.0
16	15	14	44	839	134.0	-507923.0	9180.0	-5608803.0
16	15	14	44	839	135.0	-378643.0	9313.0	-5608119.0
16	15	14	44	839	136.0	-54280.0	9789.0	-5607286.0
16	15	14	44	840	137.0	268040.0	10259.0	-5607604.0
16	15	14	44	840	138.0	416389.0	10231.0	-5608767.0
16	15	14	44	840	139.0	352823.0	10065.0	-5608172.0
16	15	14	44	841	140.0	216814.0	10486.0	-5607357.0
16	15	14	44	841	141.0	169043.0	10059.0	-5607733.0
16	15	14	44	920	142.0	198816.0	10040.0	-5608013.0
16	15	14	44	921	145.0	373016.0	10381.0	-5608896.0
16	15	14	44	921	146.0	370568.0	8270.0	-5608078.0
16	15	14	44	922	147.0	291457.0	7114.0	-5607249.0
16	15	14	44	922	148.0	155978.0	6973.0	-5607454.0
16	15	14	44	922	149.0	9707.0	6513.0	-5608805.0
16	15	14	44	923	150.0	-112618.0	8131.0	-5608219.0
16	15	14	44	923	151.0	-192046.0	9399.0	-5607369.0
16	15	14	45	12	152.0	-229003.0	9650.0	-5607626.0
16	15	14	45	12	153.0	-219427.0	9919.0	-5608690.0
16	15	14	45	13	154.0	-173563.0	9926.0	-5608050.0
16	15	14	45	13	155.0	-112256.0	10172.0	-5607291.0
16	15	14	45	13	156.0	-42423.0	10479.0	-5608267.0
16	15	14	45	14	157.0	27800.0	10183.0	-5608810.0
16	15	14	45	14	168.0	-30055.0	9803.0	-5608827.0
16	15	14	45	14	190.0	8146.0	9286.0	-5608166.0
16	15	14	45	15	212.0	42666.0	24872.0	-5608709.0
16	15	14	45	15	213.0	55116.0	25499.0	-5607948.0
16	15	14	45	15	214.0	67259.0	25324.0	-5607174.0
16	15	14	45	15	215.0	71108.0	26436.0	-5608192.0
16	15	14	45	16	216.0	73641.0	27882.0	-5608484.0
16	15	14	45	16	217.0	78007.0	28778.0	-5607735.0
16	15	14	45	16	218.0	83812.0	31223.0	-5607269.0
16	15	14	45	17	219.0	89066.0	34359.0	-5608760.0
16	15	14	45	17	220.0	94513.0	36246.0	-5608594.0
16	15	14	45	17	221.0	98896.0	37529.0	-5607777.0
16	15	14	45	18	222.0	101068.0	38593.0	-5607263.0
16	15	14	45	18	223.0	105402.0	39864.0	-5608201.0
16	15	14	45	18	224.0	102378.0	40890.0	-5607819.0
16	15	14	45	18	225.0	104338.0	42108.0	-5607361.0
16	15	14	45	19	226.0	114771.0	42511.0	-5608513.0
16	15	14	45	19	235.0	13768.0	47665.0	-5608590.0
16	15	14	45	19	236.0	-2734.0	45761.0	-5607671.0
16	15	14	45	19	237.0	-4714.0	45643.0	-5607239.0
16	15	14	45	20	238.0	445.0	45542.0	-5608597.0
16	15	14	45	20	239.0	3746.0	45354.0	-5608682.0
16	15	14	45	20	240.0	2791.0	45033.0	-5607791.0
16	15	14	45	20	241.0	14869.0	44856.0	-5607391.0
16	15	14	45	20	242.0	32911.0	45111.0	-5608682.0
16	15	14	45	21	243.0	45653.0	46867.0	-5608557.0
16	15	14	45	21	244.0	47783.0	47427.0	-5607682.0
16	15	14	45	21	245.0	47641.0	47232.0	-5607140.0
16	15	14	45	22	246.0	48773.0	46768.0	-5608279.0
16	15	14	45	22	247.0	50831.0	46563.0	-5608190.0
16	15	14	45	22	248.0	52149.0	45741.0	-5607343.0
16	15	14	45	22	249.0	50648.0	44676.0	-5606950.0
16	15	14	45	23	250.0	43475.0	43873.0	-5608219.0
16	15	14	45	103	251.0	36763.0	43359.0	-5607944.0
16	15	14	45	103	252.0	39797.0	42236.0	-5607123.0
16	15	14	45	104	253.0	44559.0	41320.0	-5607072.0
16	15	14	45	104	254.0	34646.0	39726.0	-5607765.0
16	15	14	45	104	255.0	7341.0	39307.0	-5607092.0
16	15	14	45	105	1.0	-151894.0	36780.0	-5608352.0
16	15	14	45	105	2.0	-345699.0	33974.0	-5607997.0
16	15	14	45	106	3.0	-448356.0	30600.0	-5607074.0
16	15	14	45	106	4.0	-249611.0	28914.0	-5606618.0
16	15	14	45	106	5.0	95025.0	27594.0	-5607844.0
16	15	14	45	107	6.0	326976.0	26255.0	-5607847.0
16	15	14	45	107	7.0	445879.0	24303.0	-5606952.0
16	15	14	45	107	8.0	446226.0	22559.0	-5606886.0
16	15	14	45	108	9.0	325223.0	22838.0	-5608232.0
16	15	14	45	108	10.0	212417.0	22999.0	-5607824.0
16	15	14	45	108	11.0	154678.0	22333.0	-5606964.0
16	15	14	45	109	12.0	111711.0	21158.0	-5607244.0
16	15	14	45	109	13.0	52894.0	19743.0	-5608294.0
16	15	14	45	109	14.0	-19548.0	18301.0	-5607677.0
16	15	14	45	110	15.0	-52543.0	17038.0	-5606789.0
16	15	14	45	110	16.0	-46733.0	15652.0	-5607212.0
16	15	14	45	110	17.0	-35941.0	14592.0	-5608161.0
16	15	14	45	111	18.0	-23611.0	13227.0	-5607534.0
16	15	14	45	111	19.0	22810.0	11669.0	-5606612.0
16	15	14	45	111	20.0	98071.0	10308.0	-5607131.0
16	15	14	45	112	21.0	154883.0	9341.0	-5607892.0
16	15	14	45	112	24.0	88570.0	5966.0	-5607033.0
16	15	14	45	112	25.0	-23869.0	2405.0	-5607754.0
16	15	14	45	113	26.0	-169157.0	263.0	-5607002.0
16	15	14	45	113	27.0	-296666.0	-1112.0	-5606285.0
16	15	14	45	113	28.0	-358989.0	-2583.0	-5607016.0
16	15	14	45	114	29.0	-347813.0	-3647.0	-5607012.0
16	15	14	45	114	30.0	-305449.0	-4876.0	-5606387.0
16	15	14	45	115	31.0	-245224.0	-4990.0	-5607249.0
16	15	14	45	115	32.0	-163250.0	-3605.0	-5607653.0
16	15	14	45	115	33.0	-89659.0	-3879.0	-5606796.0
16	15	14	45	116	34.0	-31392.0	-4366.0	-5606096.0
16	15	14	45	116	35.0	19989.0	-4801.0	-5606774.0
16	15	14	45	116	36.0	60135.0	-5357.0	-5607429.0
16	15	14	45	117	37.0	82045.0	-6127.0	-5606596.0
16	15	14	45	117	38.0	87942.0	-6693.0	-5605924.0
16	15	14	45	117	39.0	82857.0	-7100.0	-5606947.0
16	15	14	45	118	40.0	64957.0	-7811.0	-5607393.0
16	15	14	45	118	41.0	42816.0	-8542.0	-5606558.0
16	15	14	45	118	42.0	42159.0	-8717.0	-5606054.0
16	15	14	45	119	43.0	56211.0	-9741.0	-5607534.0
16	15	14	45	119	44.0	77353.0	-10723.0	-5607631.0
16	15	14	45	119	46.0	107866.0	-11962.0	-5606422.0
16	15	14	45	120	47.0	110233.0	-13772.0	-5607734.0
16	15	14	45	120	48.0	114291.0	-15637.0	-5607469.0
16	15	14	45	120	49.0	113051.0	-16764.0	-5606646.0
16	15	14	45	121	50.0	115474.0	-17713.0	-5606768.0
16	15	14	45	121	51.0	121180.0	-18803.0	-5608092.0
16	15	14	45	195	52.0	129985.0	-19836.0	-5607437.0
16	15	14	45	195	53.0	140131.0	-20126.0	-5606626.0
16	15	14	45	196	54.0	153636.0	-18436.0	-5606142.0
16	15	14	45	196	55.0	162621.0	-17376.0	-5606896.0
16	15	14	45	196	56.0	161239.0	-17865.0	-5606382.0
16	15	14	45	197	57.0	158669.0	-18502.0	-5605981.0
16	15	14	45	197	58.0	166406.0	-19255.0	-5607327.0
16	15	14	45	197	59.0	171190.0	-20126.0	-5607249.0
16	15	14	45	198	60.0	164349.0	-19862.0	-5606389.0
16	15	14	45	198	61.0	154309.0	-19849.0	-5606302.0
16	15	14	45	198	62.0	153702.0	-20501.0	-5607656.0
16	15	14	45	199	63.0	155956.0	-20519.0	-5607263.0
16	15	14	45	199	64.0	146974.0	-21031.0	-5606396.0
16	15	14	45	199	65.0	130083.0	-22062.0	-5606313.0
16	15	14	45	200	66.0	118116.0	-22154.0	-5607541.0
16	15	14	45	200	68.0	107941.0	-22504.0	-5606150.0
16	15	14	45	200	69.0	96532.0	-22534.0	-5605969.0
16	15	14	45	201	70.0	82386.0	-24141.0	-5607301.0
16	15	14	45	201	71.0	68689.0	-25267.0	-5607024.0
16	15	14	45	201	72.0	63456.0	-25596.0	-5606113.0
16	15	14	45	202	73.0	64286.0	-25809.0	-5606067.0
16	15	14	45	202	74.0	55760.0	-26450.0	-5607428.0
16	15	14	45	202	75.0	38594.0	-26461.0	-5607081.0
16	15	14	45	202	76.0	35774.0	-25851.0	-5606196.0
16	15	14	45	203	77.0	46739.0	-23329.0	-5606462.0
16	15	14	45	203	78.0	57445.0	-22601.0	-5607405.0
16	15	14	45	203	79.0	57198.0	-22138.0	-5606782.0
16	15	14	45	204	80.0	50730.0	-21514.0	-5605887.0
16	15	14	45	204	81.0	34644.0	-21161.0	-5606429.0
16	15	14	45	204	82.0	17719.0	-20988.0	-5607541.0
16	15	14	45	205	83.0	3745.0	-20863.0	-5606862.0
16	15	14	45	205	84.0	-9310.0	-20706.0	-5606023.0
16	15	14	45	205	85.0	-22244.0	-20309.0	-5606367.0
16	15	14	45	206	86.0	-42356.0	-19816.0	-5607574.0
16	15	14	45	206	87.0	-59516.0	-19987.0	-5606932.0
16	15	14	45	206	88.0	-72229.0	-19361.0	-5606109.0
16	15	14	45	207	89.0	-80094.0	-18484.0	-5606382.0
16	15	14	45	207	91.0	-64986.0	-18659.0	-5606389.0
16	15	14	45	207	92.0	-61784.0	-20071.0	-5606508.0
16	15	14	45	208	93.0	-73306.0	-21082.0	-5607827.0
16	15	14	45	208	94.0	-75117.0	-21227.0	-5607221.0
16	15	14	45	209	95.0	-67247.0	-21485.0	-5606431.0
16	15	14	45	209	96.0	-56602.0	-21282.0	-5606481.0
16	15	14	45	279	97.0	-47308.0	-20840.0	-5607658.0
16	15	14	45	280	98.0	-40287.0	-20157.0	-5607043.0
16	15	14	45	280	99.0	-36283.0	-17922.0	-5606174.0
16	15	14	45	281	100.0	-34129.0	-16717.0	-5606524.0
16	15	14	45	281	101.0	-41451.0	-16054.0	-5607801.0
16	15	14	45	282	102.0	-54225.0	-15366.0	-5607197.0
16	15	14	45	282	103.0	-65574.0	-14318.0	-5606342.0
16	15	14	45	283	104.0	-58161.0	-13769.0	-5606519.0
16	15	14	45	283	105.0	-44444.0	-13862.0	-5607726.0
16	15	14	45	283	106.0	-33884.0	-13404.0	-5607183.0
16	15	14	45	283	107.0	-18729.0	-12470.0	-5606379.0
16	15	14	45	284	108.0	-4289.0	-12052.0	-5607039.0
16	15	14	45	284	109.0	7066.0	-11526.0	-5607772.0
16	15	14	45	284	110.0	22618.0	-11445.0	-5607051.0
16	15	14	45	285	111.0	32036.0	-10986.0	-5606201.0
16	15	14	45	285	113.0	45851.0	-10237.0	-5607750.0
16	15	14	45	285	121.0	57306.0	-7532.0	-5607563.0
16	15	14	45	286	122.0	55798.0	-8899.0	-5606806.0
16	15	14	45	286	123.0	53733.0	-9814.0	-5606308.0
16	15	14	45	286	124.0	52318.0	-9994.0	-5607529.0
16	15	14	45	286	125.0	52313.0	-10055.0	-5607272.0
16	15	14	45	287	126.0	52143.0	-10096.0	-5606469.0
16	15	14	45	287	127.0	48422.0	-9318.0	-5606621.0
16	15	14	45	287	128.0	39664.0	-7845.0	-5607982.0
16	15	14	45	288	129.0	42739.0	-6541.0	-5607334.0
16	15	14	45	288	130.0	47712.0	-7577.0	-5606527.0
16	15	14	45	288	131.0	46249.0	-5796.0	-5606543.0
16	15	14	45	289	132.0	39308.0	-4848.0	-5607644.0
16	15	14	45	289	133.0	34021.0	-4087.0	-5607009.0
16	15	14	45	289	134.0	40928.0	-3690.0	-5606164.0
16	15	14	45	289	135.0	41842.0	-3181.0	-5606342.0
16	15	14	45	290	136.0	31485.0	-2766.0	-5607324.0
16	15	14	45	290	137.0	23181.0	-4427.0	-5606654.0
16	15	14	45	383	138.0	23714.0	-5754.0	-5605882.0
16	15	14	45	384	139.0	27303.0	-5820.0	-5606766.0
16	15	14	45	384	140.0	28957.0	-3968.0	-5607471.0
16	15	14	45	384	141.0	31026.0	-2424.0	-5606693.0
16	15	14	45	385	142.0	31131.0	-2231.0	-5605950.0
16	15	14	45	385	143.0	26650.0	-1794.0	-5606839.0
16	15	14	45	386	144.0	24008.0	-2191.0	-5607536.0
16	15	14	45	386	145.0	11814.0	-4692.0	-5606766.0
16	15	14	45	386	146.0	-11230.0	-4746.0	-5605937.0
16	15	14	45	386	147.0	-36259.0	-2901.0	-5606723.0
16	15	14	45	387	148.0	-56240.0	-2581.0	-5607330.0
16	15	14	45	387	149.0	-66519.0	-2157.0	-5606556.0
16	15	14	45	387	150.0	-67388.0	-1252.0	-5605765.0
16	15	14	45	388	151.0	-63055.0	-1450.0	-5606758.0
16	15	14	45	388	152.0	-57445.0	-2923.0	-5607225.0
16	15	14	45	388	153.0	-50312.0	-4226.0	-5606446.0
16	15	14	45	389	154.0	-41089.0	-3983.0	-5605801.0
16	15	14	45	389	155.0	-31751.0	-1834.0	-5607227.0
16	15	14	45	389	156.0	-23857.0	-1224.0	-5607359.0
16	15	14	45	390	157.0	-18448.0	-1152.0	-5606552.0
16	15	14	45	390	158.0	-14401.0	-1084.0	-5606152.0
16	15	14	45	390	159.0	-9679.0	-1527.0	-5607214.0
16	15	14	45	391	160.0	-9523.0	-3515.0	-5606801.0
16	15	14	45	391	161.0	-15383.0	-3712.0	-5606058.0
16	15	14	45	391	162.0	-24684.0	-1762.0	-5606764.0
16	15	14	45	392	163.0	-32528.0	-1336.0	-5607696.0
16	15	14	45	392	164.0	-35930.0	-678.0	-5606841.0
16	15	14	45	392	165.0	-27462.0	-738.0	-5606146.0
16	15	14	45	393	166.0	-18187.0	-471.0	-5606931.0
16	15	14	45	393	167.0	-12777.0	-1007.0	-5607707.0
16	15	14	45	393	168.0	-12912.0	-789.0	-5606858.0
16	15	14	45	394	169.0	-9347.0	-165.0	-5606191.0
16	15	14	45	394	170.0	-5478.0	-321.0	-5607067.0
16	15	14	45	394	171.0	-939.0	-411.0	-5607662.0
16	15	14	45	395	172.0	2380.0	-381.0	-5606751.0
16	15	14	45	395	173.0	4861.0	-184.0	-5606387.0
16	15	14	45	395	174.0	7253.0	-1492.0	-5607535.0
16	15	14	45	396	175.0	9949.0	-3778.0	-5607316.0
16	15	14	45	396	176.0	8173.0	-4236.0	-5606439.0
16	15	14	45	396	177.0	9644.0	-4362.0	-5606591.0
16	15	14	45	397	178.0	4775.0	-4367.0	-5607646.0
16	15	14	45	397	179.0	2010.0	-4640.0	-5607057.0
16	15	14	45	398	180.0	4552.0	-4159.0	-5606194.0
16	15	14	45	398	181.0	7809.0	-2119.0	-5606184.0
16	15	14	45	398	182.0	14272.0	-2649.0	-5607736.0
16	15	14	45	482	183.0	18376.0	-1423.0	-5607341.0
16	15	14	45	482	184.0	22299.0	-760.0	-5606480.0
16	15	14	45	482	185.0	27656.0	164.0	-5606295.0
16	15	14	45	483	186.0	35829.0	399.0	-5607859.0
16	15	14	45	483	187.0	46714.0	15.0	-5607585.0
16	15	14	45	483	188.0	52980.0	304.0	-5606717.0
16	15	14	45	483	189.0	62191.0	-89.0	-5607056.0
16	15	14	45	484	190.0	76729.0	-2185.0	-5608284.0
16	15	14	45	484	191.0	89022.0	-2446.0	-5607702.0
16	15	14	45	484	192.0	100001.0	-2353.0	-5606876.0
16	15	14	45	485	193.0	102963.0	-124.0	-5607075.0
16	15	14	45	485	194.0	100742.0	659.0	-5608434.0
16	15	14	45	485	195.0	89641.0	743.0	-5607784.0
16	15	14	45	485	196.0	74731.0	981.0	-5606953.0
16	15	14	45	486	197.0	63334.0	-1331.0	-5606856.0
16	15	14	45	486	198.0	56916.0	-2234.0	-5607424.0
16	15	14	45	486	199.0	62832.0	-242.0	-5606743.0
16	15	14	45	486	200.0	65371.0	892.0	-5606432.0
16	15	14	45	487	201.0	60138.0	1526.0	-5607842.0
16	15	14	45	487	202.0	45014.0	1782.0	-5607611.0
16	15	14	45	487	203.0	32530.0	1843.0	-5606786.0
16	15	14	45	488	204.0	31641.0	683.0	-5607247.0
16	15	14	45	488	205.0	33683.0	-1004.0	-5608391.0
16	15	14	45	488	206.0	34013.0	-1774.0	-5607712.0
16	15	14	45	488	207.0	33201.0	-29.0	-5606904.0
16	15	14	45	488	208.0	30956.0	1852.0	-5607424.0
16	15	14	45	489	209.0	30336.0	2114.0	-5608290.0
16	15	14	45	489	210.0	21698.0	2247.0	-5607589.0
16	15	14	45	489	211.0	9531.0	2524.0	-5606679.0
16	15	14	45	489	212.0	675.0	421.0	-5606684.0
16	15	14	45	490	213.0	-5697.0	-580.0	-5607851.0
16	15	14	45	490	214.0	-1190.0	-4.0	-5607355.0
16	15	14	45	490	215.0	7703.0	1854.0	-5606454.0
16	15	14	45	490	216.0	12678.0	2518.0	-5606944.0
16	15	14	45	491	217.0	16386.0	2616.0	-5607948.0
16	15	14	45	491	218.0	16559.0	3068.0	-5607304.0
16	15	14	45	491	219.0	12564.0	3119.0	-5606468.0
16	15	14	45	492	220.0	-2848.0	3372.0	-5607186.0
16	15	14	45	492	221.0	-24834.0	3839.0	-5607896.0
16	15	14	45	492	222.0	-51515.0	3933.0	-5607184.0
16	15	14	45	493	223.0	-81108.0	3974.0	-5606363.0
16	15	14	45	493	224.0	-105982.0	4294.0	-5607260.0
16	15	14	45	493	225.0	-121381.0	4391.0	-5607640.0
16	15	14	45	493	226.0	-131681.0	4285.0	-5606872.0
16	15	14	45	494	227.0	-137527.0	2334.0	-5606017.0
16	15	14	45	494	228.0	-139951.0	1178.0	-5606896.0
16	15	14	45	494	229.0	-129052.0	613.0	-5607569.0
16	15	14	45	495	230.0	-104937.0	339.0	-5606802.0
16	15	14	45	495	231.0	-71824.0	551.0	-5606004.0
16	15	14	45	495	232.0	-35281.0	919.0	-5606276.0
16	15	14	45	496	233.0	4266.0	3083.0	-5606458.0
16	15	14	45	496	234.0	46486.0	3390.0	-5605979.0
16	15	14	45	496	235.0	86404.0	3361.0	-5607194.0
16	15	14	45	496	236.0	117606.0	4962.0	-5607409.0
16	15	14	45	497	237.0	148784.0	5218.0	-5606517.0
16	15	14	45	497	238.0	164418.0	5581.0	-5606234.0
16	15	14	45	497	239.0	172078.0	5755.0	-5607504.0
16	15	14	45	497	240.0	169404.0	6226.0	-5607269.0
16	15	14	45	498	241.0	169507.0	6121.0	-5606372.0
16	15	14	45	498	242.0	176123.0	3867.0	-5605732.0
16	15	14	45	498	243.0	178354.0	2449.0	-5606771.0
16	15	14	45	586	244.0	172283.0	2360.0	-5607217.0
16	15	14	45	587	245.0	135249.0	3036.0	-5606362.0
16	15	14	45	587	246.0	66729.0	5164.0	-5605823.0
16	15	14	45	587	247.0	-52826.0	5636.0	-5607137.0
16	15	14	45	588	248.0	-295546.0	6073.0	-5607133.0
16	15	14	45	588	249.0	-609489.0	5587.0	-5606267.0
16	15	14	45	588	250.0	-818585.0	3941.0	-5605785.0
16	15	14	45	588	251.0	-861138.0	5329.0	-5606998.0
16	15	14	45	589	252.0	-792312.0	6320.0	-5606841.0
16	15	14	45	589	253.0	-649601.0	6706.0	-5606041.0
16	15	14	45	589	254.0	-420412.0	7312.0	-5606303.0
16	15	14	45	589	255.0	-90835.0	7481.0	-5607519.0
16	15	14	45	590	0.0	269668.0	7106.0	-5606879.0
16	15	14	45	590	1.0	560898.0	5106.0	-5606114.0
16	15	14	45	590	2.0	729751.0	4206.0	-5605874.0
16	15	14	45	590	3.0	766573.0	4649.0	-5606666.0
16	15	14	45	591	4.0	649094.0	6333.0	-5606014.0
16	15	14	45	591	5.0	376652.0	7205.0	-5605380.0
16	15	14	45	591	6.0	6453.0	7700.0	-5606552.0
16	15	14	45	592	7.0	-305042.0	7690.0	-5606872.0
16	15	14	45	592	8.0	-386668.0	6581.0	-5605976.0
16	15	14	45	592	9.0	-252973.0	5018.0	-5605436.0
16	15	14	45	593	10.0	-33681.0	5157.0	-5606479.0
16	15	14	45	593	11.0	164436.0	7130.0	-5606620.0
16	15	14	45	593	12.0	335905.0	7440.0	-5605761.0
16	15	14	45	594	13.0	487495.0	7293.0	-5605821.0
16	15	14	45	594	14.0	565964.0	7208.0	-5607025.0
16	15	14	45	594	15.0	542246.0	7194.0	-5606547.0
16	15	14	45	594	16.0	440312.0	5665.0	-5605639.0
16	15	14	45	595	17.0	314960.0	4915.0	-5605644.0
16	15	14	45	595	18.0	201884.0	6021.0	-5606705.0
16	15	14	45	595	19.0	112372.0	7796.0	-5606187.0
16	15	14	45	595	20.0	27971.0	8040.0	-5605258.0
16	15	14	45	596	21.0	-69145.0	8069.0	-5605458.0
16	15	14	45	596	22.0	-170766.0	8109.0	-5606687.0
16	15	14	45	596	23.0	-242469.0	7129.0	-5606164.0
16	15	14	45	596	24.0	-268917.0	5534.0	-5605288.0
16	15	14	45	597	25.0	-238306.0	6009.0	-5605675.0
16	15	14	45	597	26.0	-185059.0	7748.0	-5606951.0
16	15	14	45	597	27.0	-143092.0	8871.0	-5606383.0
16	15	14	45	597	28.0	-115911.0	8709.0	-5605708.0
16	15	14	45	597	29.0	-97241.0	8652.0	-5606687.0
16	15	14	45	598	30.0	-81317.0	8701.0	-5606829.0
16	15	14	45	598	31.0	-69941.0	7051.0	-5606069.0
16	15	14	45	697	32.0	-70373.0	5774.0	-5606280.0
16	15	14	45	697	33.0	-76926.0	6247.0	-5607484.0
16	15	14	45	698	34.0	-84529.0	8441.0	-5606756.0
16	15	14	45	698	35.0	-100125.0	8836.0	-5605930.0
16	15	14	45	699	36.0	-122179.0	8969.0	-5605916.0
16	15	14	45	699	37.0	-131182.0	9188.0	-5607297.0
16	15	14	45	699	38.0	-128467.0	8188.0	-5606746.0
16	15	14	45	700	39.0	-115134.0	6468.0	-5605948.0
16	15	14	45	700	40.0	-98686.0	6769.0	-5606234.0
16	15	14	45	701	41.0	-73480.0	8214.0	-5607443.0
16	15	14	45	701	42.0	-42676.0	9222.0	-5606788.0
16	15	14	45	701	43.0	-4172.0	9728.0	-5606053.0
16	15	14	45	702	44.0	43078.0	9986.0	-5606786.0
16	15	14	45	702	45.0	91234.0	9490.0	-5607678.0
16	15	14	45	703	46.0	142881.0	7334.0	-5606902.0
16	15	14	45	703	47.0	194324.0	6817.0	-5606104.0
16	15	14	45	703	48.0	244136.0	8473.0	-5606604.0
16	15	14	45	704	49.0	281517.0	9408.0	-5607445.0
16	15	14	45	704	50.0	296593.0	9516.0	-5606689.0
16	15	14	45	704	51.0	289117.0	9698.0	-5605815.0
16	15	14	45	705	52.0	280121.0	9796.0	-5606349.0
16	15	14	45	705	53.0	292404.0	8622.0	-5607184.0
16	15	14	45	705	54.0	256489.0	7226.0	-5606514.0
16	15	14	45	706	55.0	230731.0	7374.0	-5605673.0
16	15	14	45	706	56.0	253109.0	8723.0	-5606471.0
16	15	14	45	706	57.0	270251.0	9418.0	-5607286.0
16	15	14	45	707	58.0	244053.0	9542.0	-5606584.0
16	15	14	45	707	59.0	153591.0	9293.0	-5605884.0
16	15	14	45	708	60.0	91249.0	9609.0	-5607004.0
16	15	14	45	708	61.0	97461.0	7236.0	-5607199.0
16	15	14	45	708	62.0	102781.0	6181.0	-5606433.0
16	15	14	45	709	63.0	77119.0	7849.0	-5606130.0
16	15	14	45	709	64.0	51629.0	9182.0	-5607525.0
16	15	14	45	710	65.0	46774.0	9335.0	-5607099.0
16	15	14	45	710	66.0	55165.0	9572.0	-5606301.0
16	15	14	45	710	67.0	50993.0	9953.0	-5605593.0
16	15	14	45	711	68.0	45263.0	9373.0	-5606441.0
16	15	14	45	711	69.0	47568.0	9856.0	-5606232.0
16	15	14	45	712	70.0	59353.0	10055.0	-5605614.0
16	15	14	45	712	71.0	62716.0	10113.0	-5606652.0
16	15	14	45	712	72.0	49938.0	10201.0	-5607142.0
16	15	14	45	713	73.0	36590.0	10962.0	-5606254.0
16	15	14	45	713	74.0	28213.0	11680.0	-5605857.0
16	15	14	45	714	75.0	16702.0	12204.0	-5607013.0
16	15	14	45	714	76.0	2392.0	10461.0	-5606916.0
16	15	14	45	714	77.0	-16436.0	10284.0	-5606021.0
16	15	14	45	715	78.0	-22907.0	10958.0	-5605774.0
16	15	14	45	715	79.0	-21972.0	11565.0	-5607167.0
16	15	14	45	715	80.0	-17407.0	12331.0	-5607016.0
16	15	14	45	716	81.0	-24582.0	13755.0	-5606089.0
16	15	14	45	716	82.0	-35819.0	16859.0	-5606172.0
16	15	14	45	717	83.0	-38266.0	18137.0	-5607509.0
16	15	14	45	717	84.0	-35360.0	19913.0	-5607022.0
16	15	14	45	717	85.0	-37725.0	21961.0	-5606120.0
16	15	14	45	718	86.0	-49829.0	23647.0	-5605874.0
16	15	14	45	718	87.0	-59037.0	25566.0	-5607080.0
16	15	14	45	719	88.0	-53821.0	26615.0	-5606729.0
16	15	14	45	719	89.0	-46754.0	27647.0	-5605836.0
16	15	14	45	719	90.0	-41356.0	28599.0	-5605831.0
16	15	14	45	720	91.0	-41174.0	28414.0	-5607191.0
16	15	14	45	720	92.0	-43767.0	29306.0	-5606685.0
16	15	14	45	721	93.0	-47757.0	30104.0	-5605886.0
16	15	14	45	721	94.0	-42692.0	33142.0	-5606737.0
16	15	14	45	721	95.0	-57394.0	35826.0	-5607702.0
16	15	14	45	722	96.0	-53075.0	36712.0	-5606944.0
16	15	14	45	722	97.0	-49556.0	38290.0	-5606106.0
16	15	14	45	723	98.0	-22237.0	38456.0	-5606403.0
16	15	14	45	806	99.0	1772.0	37636.0	-5607351.0
16	15	14	45	806	100.0	3686.0	39205.0	-5606590.0
16	15	14	45	807	101.0	-3636.0	42298.0	-5605769.0
16	15	14	45	807	102.0	-13371.0	43358.0	-5605609.0
16	15	14	45	808	103.0	10567.0	44534.0	-5606308.0
16	15	14	45	808	104.0	23449.0	45812.0	-5605642.0
16	15	14	45	808	105.0	48126.0	46327.0	-5605451.0
16	15	14	45	808	106.0	57748.0	44481.0	-5606922.0
16	15	14	45	809	107.0	66366.0	44866.0	-5606631.0
16	15	14	45	809	108.0	95668.0	46823.0	-5605787.0
16	15	14	45	809	109.0	104378.0	47905.0	-5605868.0
16	15	14	45	810	110.0	119953.0	48026.0	-5607336.0
16	15	14	45	810	111.0	120576.0	48284.0	-5606837.0
16	15	14	45	810	112.0	134241.0	48734.0	-5605954.0
16	15	14	45	810	113.0	158577.0	47402.0	-5606083.0
16	15	14	45	811	114.0	179089.0	46185.0	-5607203.0
16	15	14	45	811	115.0	203683.0	47323.0	-5606621.0
16	15	14	45	811	116.0	202852.0	48299.0	-5605711.0
16	15	14	45	812	117.0	197074.0	47791.0	-5605638.0
16	15	14	45	812	118.0	183711.0	47697.0	-5606939.0
16	15	14	45	812	119.0	176436.0	47608.0	-5606575.0
16	15	14	45	812	120.0	172608.0	47039.0	-5605676.0
16	15	14	45	813	121.0	171063.0	44448.0	-5605895.0
16	15	14	45	813	122.0	163827.0	42728.0	-5607134.0
16	15	14	45	813	123.0	151618.0	41788.0	-5606629.0
16	15	14	45	813	124.0	147579.0	43056.0	-5605791.0
16	15	14	45	814	125.0	149801.0	43181.0	-5606537.0
16	15	14	45	814	126.0	159791.0	42181.0	-5607298.0
16	15	14	45	814	127.0	142439.0	40868.0	-5606597.0
16	15	14	45	814	128.0	109431.0	38481.0	-5605729.0
16	15	14	45	815	129.0	55569.0	36067.0	-5606437.0
16	15	14	45	815	130.0	-57764.0	35402.0	-5607166.0
16	15	14	45	816	131.0	-261067.0	35829.0	-5606385.0
16	15	14	45	816	132.0	-428396.0	34873.0	-5605586.0
16	15	14	45	816	133.0	-325980.0	33441.0	-5606136.0
16	15	14	45	816	134.0	-36341.0	32411.0	-5606369.0
16	15	14	45	817	135.0	247636.0	30533.0	-5605664.0
16	15	14	45	817	136.0	438300.0	26943.0	-5606144.0
16	15	14	45	817	137.0	475787.0	24971.0	-5607049.0
16	15	14	45	818	138.0	342561.0	25205.0	-5606276.0
16	15	14	45	818	139.0	160482.0	24794.0	-5605632.0
16	15	14	45	818	140.0	44987.0	23186.0	-5606532.0
16	15	14	45	819	141.0	-24360.0	21031.0	-5606899.0
16	15	14	45	819	142.0	-90423.0	19781.0	-5606011.0
16	15	14	45	819	143.0	-155720.0	17483.0	-5605442.0
16	15	14	45	820	144.0	-191034.0	14718.0	-5606616.0
16	15	14	45	820	145.0	-199241.0	13313.0	-5606777.0
16	15	14	45	820	146.0	-177207.0	13894.0	-5605884.0
16	15	14	45	820	147.0	-133884.0	13483.0	-5605161.0
16	15	14	45	821	148.0	-65247.0	11549.0	-5606192.0
16	15	14	45	821	149.0	17427.0	10606.0	-5606546.0
16	15	14	45	822	150.0	83268.0	9175.0	-5605742.0
16	15	14	45	915	151.0	123632.0	5885.0	-5605074.0
16	15	14	45	915	152.0	130547.0	4506.0	-5606146.0
16	15	14	45	915	153.0	101068.0	5185.0	-5606281.0
16	15	14	45	916	154.0	44104.0	4916.0	-5605508.0
16	15	14	45	916	155.0	-43164.0	3687.0	-5605530.0
16	15	14	45	916	156.0	-136127.0	3146.0	-5607024.0
16	15	14	45	917	157.0	-235077.0	1980.0	-5606470.0
16	15	14	45	917	158.0	-332806.0	-894.0	-5605696.0
16	15	14	45	917	159.0	-438505.0	-3616.0	-5606082.0
16	15	14	45	917	160.0	-488111.0	-4494.0	-5607202.0
16	15	14	45	918	161.0	-476001.0	-3563.0	-5606472.0
16	15	14	45	918	162.0	-411609.0	-3882.0	-5605712.0
16	15	14	45	918	163.0	-320513.0	-4469.0	-5605987.0
16	15	14	45	918	164.0	-212621.0	-5206.0	-5607058.0
16	15	14	45	919	165.0	-113111.0	-6174.0	-5606314.0
16	15	14	45	919	166.0	-33371.0	-7801.0	-5605553.0
16	15	14	45	919	167.0	24032.0	-7482.0	-5605712.0
16	15	14	45	919	168.0	75236.0	-8628.0	-5606791.0
16	15	14	45	920	169.0	106696.0	-10117.0	-5606107.0
16	15	14	45	920	170.0	119785.0	-10463.0	-5605552.0
16	15	14	45	920	171.0	99561.0	-10569.0	-5606682.0
16	15	14	45	920	172.0	61773.0	-11170.0	-5606812.0
16	15	14	45	921	173.0	5294.0	-13519.0	-5605905.0
16	15	14	45	921	174.0	-32147.0	-15412.0	-5605449.0
16	15	14	45	921	175.0	-51722.0	-16559.0	-5606766.0
16	15	14	45	922	176.0	-27991.0	-17304.0	-5606813.0
16	15	14	45	922	177.0	-1171.0	-17953.0	-5605895.0
16	15	14	45	922	178.0	37571.0	-16335.0	-5605564.0
16	15	14	45	922	179.0	66699.0	-16254.0	-5606852.0
16	15	14	45	923	180.0	100181.0	-17206.0	-5606621.0
16	15	14	45	923	181.0	125925.0	-19142.0	-5605774.0
16	15	14	45	923	182.0	144492.0	-18272.0	-5605234.0
16	15	14	45	923	183.0	146859.0	-18461.0	-5606460.0
16	15	14	45	924	184.0	147638.0	-18397.0	-5606425.0
16	15	14	45	924	185.0	142317.0	-18244.0	-5605593.0
16	15	14	45	924	186.0	146454.0	-18711.0	-5605116.0
16	15	14	45	924	187.0	133485.0	-19266.0	-5606381.0
16	15	14	45	925	188.0	126421.0	-21502.0	-5606229.0
16	15	14	45	925	189.0	112984.0	-23659.0	-5605395.0
16	15	14	45	925	190.0	110983.0	-23964.0	-5605857.0
16	15	14	45	925	191.0	100553.0	-22472.0	-5607057.0
16	15	14	45	926	192.0	92948.0	-21866.0	-5606358.0
16	15	14	45	926	193.0	81843.0	-22048.0	-5605595.0
16	15	14	45	926	194.0	82270.0	-21921.0	-5605510.0
16	15	14	45	927	195.0	66164.0	-22947.0	-5606391.0
16	15	14	45	927	196.0	54400.0	-25397.0	-5605766.0
16	15	14	45	927	197.0	33428.0	-25892.0	-5605392.0
16	15	14	45	928	198.0	23966.0	-23971.0	-5606893.0
16	15	14	45	928	199.0	8771.0	-23511.0	-5606849.0
16	15	14	45	928	200.0	5351.0	-23473.0	-5605971.0
16	15	14	45	929	201.0	-7192.0	-23525.0	-5605557.0
16	15	14	45	929	202.0	-2737.0	-24101.0	-5606826.0
16	15	14	45	929	203.0	-2853.0	-25515.0	-5606747.0
16	15	14	46	22	204.0	-1410.0	-26682.0	-5605871.0
16	15	14	46	22	205.0	-5436.0	-26309.0	-5605682.0
16	15	14	46	23	206.0	-7561.0	-24185.0	-5607020.0
16	15	14	46	23	207.0	-15692.0	-23924.0	-5606716.0
16	15	14	46	23	208.0	-11917.0	-23205.0	-5605812.0
16	15	14	46	24	209.0	-4374.0	-22842.0	-5605865.0
16	15	14	46	24	210.0	15877.0	-23189.0	-5607104.0
16	15	14	46	24	211.0	39407.0	-24914.0	-5606641.0
16	15	14	46	25	212.0	50779.0	-24992.0	-5605699.0
16	15	14	46	25	213.0	50129.0	-22989.0	-5605831.0
16	15	14	46	25	214.0	40326.0	-22135.0	-5606951.0
16	15	14	46	25	215.0	41116.0	-21741.0	-5606429.0
16	15	14	46	26	216.0	52158.0	-21693.0	-5605549.0
16	15	14	46	26	217.0	71521.0	-21262.0	-5605874.0
16	15	14	46	26	218.0	85057.0	-21232.0	-5606953.0
16	15	14	46	27	219.0	101088.0	-20897.0	-5606366.0
16	15	14	46	27	220.0	111531.0	-20811.0	-5605582.0
16	15	14	46	27	221.0	128838.0	-20884.0	-5606562.0
16	15	14	46	28	222.0	130956.0	-20507.0	-5607037.0
16	15	14	46	28	223.0	134482.0	-19522.0	-5606276.0
16	15	14	46	28	224.0	136637.0	-19544.0	-5605529.0
16	15	14	46	29	225.0	143126.0	-19964.0	-5606551.0
16	15	14	46	29	226.0	143956.0	-21597.0	-5606875.0
16	15	14	46	29	227.0	139094.0	-21594.0	-5606047.0
16	15	14	46	30	228.0	143873.0	-21449.0	-5605222.0
16	15	14	46	30	229.0	146710.0	-21084.0	-5605663.0
16	15	14	46	30	230.0	152695.0	-20765.0	-5606210.0
16	15	14	46	31	231.0	145339.0	-19846.0	-5605476.0
16	15	14	46	31	232.0	135098.0	-17336.0	-5606006.0
16	15	14	46	31	233.0	118728.0	-17357.0	-5606999.0
16	15	14	46	32	234.0	104045.0	-15813.0	-5606241.0
16	15	14	46	32	235.0	87964.0	-14531.0	-5605505.0
16	15	14	46	32	236.0	72891.0	-13830.0	-5605977.0
16	15	14	46	33	237.0	59444.0	-13394.0	-5606862.0
16	15	14	46	33	238.0	50419.0	-12977.0	-5606087.0
16	15	14	46	33	239.0	35317.0	-12412.0	-5605399.0
16	15	14	46	34	240.0	28552.0	-12939.0	-5606410.0
16	15	14	46	34	241.0	18546.0	-14444.0	-5606826.0
16	15	14	46	34	242.0	13356.0	-14408.0	-5605969.0
16	15	14	46	34	243.0	5298.0	-13739.0	-5605139.0
16	15	14	46	35	244.0	-5814.0	-11872.0	-5605954.0
16	15	14	46	35	245.0	-23661.0	-10626.0	-5606863.0
16	15	14	46	35	246.0	-36549.0	-9997.0	-5606150.0
16	15	14	46	36	247.0	-49262.0	-9364.0	-5605364.0
16	15	14	46	132	248.0	-55764.0	-10466.0	-5606203.0
16	15	14	46	132	249.0	-61790.0	-11694.0	-5606838.0
16	15	14	46	132	250.0	-65613.0	-9356.0	-5606081.0
16	15	14	46	133	251.0	-72576.0	-7652.0	-5605519.0
16	15	14	46	133	252.0	-77390.0	-7541.0	-5606733.0
16	15	14	46	134	253.0	-72191.0	-7374.0	-5606627.0
16	15	14	46	134	254.0	-62162.0	-7059.0	-5605833.0
16	15	14	46	134	255.0	-45227.0	-7729.0	-5605263.0
16	15	14	46	135	0.0	-35766.0	-9394.0	-5606676.0
16	15	14	46	135	1.0	-32666.0	-9641.0	-5606636.0
16	15	14	46	135	2.0	-28822.0	-7549.0	-5605819.0
16	15	14	46	136	3.0	-24568.0	-6072.0	-5605212.0
16	15	14	46	136	4.0	-18256.0	-5487.0	-5606269.0
16	15	14	46	136	5.0	-19109.0	-5093.0	-5606020.0
16	15	14	46	137	6.0	-22179.0	-4710.0	-5605304.0
16	15	14	46	137	7.0	-15469.0	-5965.0	-5605979.0
16	15	14	46	137	8.0	4571.0	-6944.0	-5606642.0
16	15	14	46	138	9.0	27196.0	-6362.0	-5605771.0
16	15	14	46	138	10.0	45950.0	-4231.0	-5605292.0
16	15	14	46	138	11.0	57363.0	-3702.0	-5606590.0
16	15	14	46	138	12.0	64346.0	-3944.0	-5606651.0
16	15	14	46	139	13.0	63673.0	-3780.0	-5605749.0
16	15	14	46	139	14.0	61219.0	-3554.0	-5605598.0
16	15	14	46	139	15.0	53762.0	-3348.0	-5607058.0
16	15	14	46	140	16.0	40023.0	-3078.0	-5606792.0
16	15	14	46	140	17.0	21698.0	-2049.0	-5605858.0
16	15	14	46	140	18.0	10307.0	-1421.0	-5605796.0
16	15	14	46	141	19.0	5711.0	-1594.0	-5607073.0
16	15	14	46	141	20.0	720.0	-1548.0	-5606696.0
16	15	14	46	141	21.0	-5163.0	-1749.0	-5605804.0
16	15	14	46	142	22.0	-6347.0	-3535.0	-5605899.0
16	15	14	46	142	23.0	-2307.0	-4539.0	-5607237.0
16	15	14	46	142	24.0	-2611.0	-4874.0	-5606772.0
16	15	14	46	142	25.0	-15423.0	-5242.0	-5605877.0
16	15	14	46	143	26.0	-31531.0	-5131.0	-5605811.0
16	15	14	46	143	27.0	-40801.0	-4619.0	-5607213.0
16	15	14	46	143	28.0	-41491.0	-2718.0	-5606775.0
16	15	14	46	144	29.0	-41878.0	-3231.0	-5605892.0
16	15	14	46	144	30.0	-38692.0	-3471.0	-5606438.0
16	15	14	46	144	31.0	-33669.0	-1772.0	-5607676.0
16	15	14	46	145	32.0	-31561.0	-1105.0	-5607038.0
16	15	14	46	145	33.0	-32551.0	-1306.0	-5606226.0
16	15	14	46	145	34.0	-35882.0	-1057.0	-5606863.0
16	15	14	46	146	35.0	-41038.0	-332.0	-5607583.0
16	15	14	46	146	36.0	-41261.0	-582.0	-5606781.0
16	15	14	46	146	37.0	-36554.0	-2736.0	-5606012.0
16	15	14	46	147	38.0	-27775.0	-3627.0	-5606609.0
16	15	14	46	147	39.0	-19049.0	-3850.0	-5607400.0
16	15	14	46	147	40.0	-15351.0	-1996.0	-5606585.0
16	15	14	46	148	41.0	-19514.0	-1289.0	-5606038.0
16	15	14	46	148	42.0	-17412.0	-627.0	-5607331.0
16	15	14	46	148	43.0	-15242.0	-767.0	-5607529.0
16	15	14	46	149	44.0	-14754.0	-1320.0	-5606639.0
16	15	14	46	149	45.0	-16171.0	-3254.0	-5606461.0
16	15	14	46	260	46.0	-22307.0	-3112.0	-5607882.0
16	15	14	46	260	47.0	-28801.0	-1251.0	-5607599.0
16	15	14	46	260	48.0	-33409.0	-591.0	-5606697.0
16	15	14	46	261	49.0	-32682.0	-169.0	-5606352.0
16	15	14	46	261	50.0	-31199.0	309.0	-5607727.0
16	15	14	46	262	51.0	-27094.0	506.0	-5607681.0
16	15	14	46	262	52.0	-17239.0	-1440.0	-5606768.0
16	15	14	46	262	53.0	-7235.0	-2593.0	-5606505.0
16	15	14	46	263	54.0	6067.0	-2184.0	-5607893.0
16	15	14	46	263	55.0	21889.0	-331.0	-5607727.0
16	15	14	46	263	56.0	36234.0	211.0	-5606795.0
16	15	14	46	264	57.0	45127.0	406.0	-5606589.0
16	15	14	46	264	58.0	52086.0	941.0	-5607841.0
16	15	14	46	264	59.0	59908.0	434.0	-5607537.0
16	15	14	46	264	60.0	62716.0	-1252.0	-5606682.0
16	15	14	46	265	61.0	60146.0	-1711.0	-5607121.0
16	15	14	46	265	62.0	55859.0	-104.0	-5608039.0
16	15	14	46	265	63.0	46161.0	672.0	-5607371.0
16	15	14	46	266	64.0	36298.0	1239.0	-5606642.0
16	15	14	46	266	65.0	23099.0	1720.0	-5607976.0
16	15	14	46	266	66.0	20303.0	1049.0	-5608290.0
16	15	14	46	266	67.0	20976.0	-586.0	-5607475.0
16	15	14	46	267	68.0	27056.0	-1120.0	-5606638.0
16	15	14	46	267	69.0	32841.0	-152.0	-5607121.0
16	15	14	46	267	70.0	44046.0	1867.0	-5607501.0
16	15	14	46	268	71.0	67298.0	2616.0	-5606710.0
16	15	14	46	268	72.0	87579.0	2738.0	-5606623.0
16	15	14	46	268	73.0	98348.0	3256.0	-5607903.0
16	15	14	46	269	74.0	99464.0	2132.0	-5607321.0
16	15	14	46	269	75.0	104819.0	610.0	-5606534.0
16	15	14	46	269	76.0	109592.0	967.0	-5607065.0
16	15	14	46	270	77.0	106176.0	2809.0	-5608057.0
16	15	14	46	270	78.0	93668.0	3321.0	-5607264.0
16	15	14	46	270	79.0	79271.0	3823.0	-5606457.0
16	15	14	46	271	80.0	72716.0	3764.0	-5606776.0
16	15	14	46	271	81.0	64351.0	3756.0	-5607716.0
16	15	14	46	271	82.0	59526.0	1676.0	-5606987.0
16	15	14	46	272	83.0	51839.0	881.0	-5606120.0
16	15	14	46	272	84.0	47608.0	1532.0	-5606453.0
16	15	14	46	273	85.0	40979.0	3813.0	-5607371.0
16	15	14	46	273	86.0	31919.0	4412.0	-5606700.0
16	15	14	46	273	87.0	26681.0	4603.0	-5605872.0
16	15	14	46	274	88.0	32608.0	4214.0	-5606679.0
16	15	14	46	274	89.0	40676.0	3139.0	-5607570.0
16	15	14	46	275	90.0	50827.0	1678.0	-5606837.0
16	15	14	46	275	91.0	62294.0	1924.0	-5606067.0
16	15	14	46	275	92.0	68207.0	3957.0	-5607025.0
16	15	14	46	276	93.0	71463.0	4696.0	-5607517.0
16	15	14	46	276	94.0	74258.0	5074.0	-5606730.0
16	15	14	46	276	95.0	82591.0	5570.0	-5605969.0
16	15	14	46	277	96.0	98120.0	4974.0	-5607087.0
16	15	14	46	277	97.0	111286.0	3229.0	-5607455.0
16	15	14	46	277	98.0	118201.0	2243.0	-5606673.0
16	15	14	46	278	99.0	121003.0	3025.0	-5605847.0
16	15	14	46	278	100.0	124596.0	4458.0	-5606868.0
16	15	14	46	278	101.0	119938.0	5444.0	-5607361.0
16	15	14	46	278	102.0	106486.0	6283.0	-5606567.0
16	15	14	46	279	103.0	89351.0	5756.0	-5605903.0
16	15	14	46	279	104.0	75607.0	4615.0	-5607239.0
16	15	14	46	279	105.0	50649.0	3403.0	-5607346.0
16	15	14	46	280	106.0	8758.0	4233.0	-5606542.0
16	15	14	46	280	107.0	-33979.0	6052.0	-5605968.0
16	15	14	46	280	108.0	-65368.0	6469.0	-5606826.0
16	15	14	46	280	109.0	-90799.0	6942.0	-5606501.0
16	15	14	46	281	110.0	-99241.0	7384.0	-5605904.0
16	15	14	46	281	111.0	-93383.0	6787.0	-5606957.0
16	15	14	46	282	112.0	-79793.0	4628.0	-5607267.0
16	15	14	46	282	113.0	-61487.0	4049.0	-5606364.0
16	15	14	46	282	114.0	-35661.0	5727.0	-5605765.0
16	15	14	46	283	115.0	-10854.0	7075.0	-5606727.0
16	15	14	46	283	116.0	8138.0	7393.0	-5606961.0
16	15	14	46	284	117.0	21763.0	7473.0	-5606049.0
16	15	14	46	284	118.0	28467.0	7746.0	-5605533.0
16	15	14	46	284	119.0	32658.0	6703.0	-5606728.0
16	15	14	46	285	120.0	31537.0	4834.0	-5606892.0
16	15	14	46	285	121.0	23264.0	4773.0	-5606001.0
16	15	14	46	286	122.0	18079.0	6553.0	-5605586.0
16	15	14	46	286	123.0	31715.0	7644.0	-5606919.0
16	15	14	46	286	124.0	48620.0	8045.0	-5606843.0
16	15	14	46	287	125.0	44024.0	8226.0	-5605944.0
16	15	14	46	287	126.0	-5694.0	7734.0	-5605957.0
16	15	14	46	391	127.0	-105199.0	6292.0	-5607211.0
16	15	14	46	392	128.0	-358747.0	5878.0	-5606677.0
16	15	14	46	392	129.0	-764206.0	7764.0	-5605754.0
16	15	14	46	392	130.0	-1114162.0	8889.0	-5605729.0
16	15	14	46	393	131.0	-1263387.0	8822.0	-5606999.0
16	15	14	46	393	132.0	-1195606.0	8081.0	-5606450.0
16	15	14	46	393	133.0	-952952.0	8369.0	-5605644.0
16	15	14	46	394	134.0	-598553.0	7269.0	-5605850.0
16	15	14	46	394	135.0	-166356.0	6314.0	-5607376.0
16	15	14	46	394	136.0	216262.0	6438.0	-5606829.0
16	15	14	46	394	137.0	478758.0	8224.0	-5606029.0
16	15	14	46	395	138.0	588230.0	9139.0	-5605788.0
16	15	14	46	395	139.0	580223.0	9816.0	-5607033.0
16	15	14	46	395	140.0	454902.0	9762.0	-5606524.0
16	15	14	46	396	141.0	228898.0	9638.0	-5605842.0
16	15	14	46	396	142.0	-68161.0	7359.0	-5606797.0
16	15	14	46	396	143.0	-363967.0	6589.0	-5607219.0
16	15	14	46	396	144.0	-603381.0	8009.0	-5606303.0
16	15	14	46	397	145.0	-574096.0	8964.0	-5605779.0
16	15	14	46	397	146.0	-254076.0	8865.0	-5607067.0
16	15	14	46	397	147.0	152386.0	9188.0	-5607285.0
16	15	14	46	397	148.0	381903.0	9219.0	-5606349.0
16	15	14	46	398	149.0	383873.0	7761.0	-5605669.0
16	15	14	46	398	150.0	260253.0	6014.0	-5606458.0
16	15	14	46	398	151.0	172624.0	6284.0	-5607014.0
16	15	14	46	399	152.0	135598.0	8192.0	-5606131.0
16	15	14	46	399	153.0	145955.0	8893.0	-5605640.0
16	15	14	46	399	154.0	167998.0	8879.0	-5606830.0
16	15	14	46	399	155.0	208616.0	9122.0	-5606851.0
16	15	14	46	400	156.0	218886.0	8864.0	-5605931.0
16	15	14	46	400	157.0	182726.0	7373.0	-5605801.0
16	15	14	46	400	158.0	80606.0	7078.0	-5607341.0
16	15	14	46	401	159.0	-25535.0	8580.0	-5607056.0
16	15	14	46	401	160.0	-114627.0	9494.0	-5606116.0
16	15	14	46	401	161.0	-159341.0	10263.0	-5605799.0
16	15	14	46	402	162.0	-178442.0	11076.0	-5607114.0
16	15	14	46	402	163.0	-170432.0	11086.0	-5606883.0
16	15	14	46	402	164.0	-157656.0	9820.0	-5605997.0
16	15	14	46	403	165.0	-129916.0	8816.0	-5605768.0
16	15	14	46	403	166.0	-88302.0	10649.0	-5607184.0
16	15	14	46	403	167.0	-30959.0	11316.0	-5606861.0
16	15	14	46	404	168.0	2913.0	11127.0	-5605987.0
16	15	14	46	404	169.0	21286.0	11419.0	-5605884.0
16	15	14	46	404	170.0	9546.0	11508.0	-5607339.0
16	15	14	46	405	171.0	26.0	10894.0	-5606941.0
16	15	14	46	405	172.0	-20196.0	9011.0	-5606049.0
16	15	14	46	405	173.0	-31909.0	8237.0	-5606134.0
16	15	14	46	406	174.0	-49629.0	7811.0	-5607313.0
16	15	14	46	406	175.0	-53148.0	8282.0	-5606707.0
16	15	14	46	406	176.0	-55055.0	10032.0	-5605875.0
16	15	14	46	407	177.0	-36819.0	10780.0	-5606086.0
16	15	14	46	407	178.0	-24199.0	10875.0	-5607188.0
16	15	14	46	407	179.0	12880.0	9566.0	-5606462.0
16	15	14	46	408	180.0	49193.0	8515.0	-5605672.0
16	15	14	46	408	181.0	78181.0	10000.0	-5605872.0
16	15	14	46	408	182.0	119646.0	10811.0	-5607022.0
16	15	14	46	409	183.0	143978.0	11136.0	-5606287.0
16	15	14	46	409	184.0	174273.0	11204.0	-5605644.0
16	15	14	46	409	185.0	187709.0	11192.0	-5606665.0
16	15	14	46	410	186.0	213188.0	10428.0	-5607167.0
16	15	14	46	410	187.0	229976.0	8066.0	-5606308.0
16	15	14	46	519	188.0	232487.0	7442.0	-5605838.0
16	15	14	46	520	189.0	237363.0	7909.0	-5606994.0
16	15	14	46	520	190.0	222059.0	9665.0	-5607006.0
16	15	14	46	521	191.0	213693.0	10016.0	-5606072.0
16	15	14	46	521	192.0	189324.0	10244.0	-5605914.0
16	15	14	46	521	193.0	164447.0	10804.0	-5607332.0
16	15	14	46	522	194.0	147430.0	9247.0	-5607041.0
16	15	14	46	522	195.0	126253.0	7755.0	-5606062.0
16	15	14	46	522	196.0	100575.0	7918.0	-5605790.0
16	15	14	46	523	197.0	82364.0	9643.0	-5606984.0
16	15	14	46	523	198.0	66518.0	10076.0	-5606671.0
16	15	14	46	523	199.0	72923.0	10166.0	-5605734.0
16	15	14	46	524	200.0	78209.0	9948.0	-5605579.0
16	15	14	46	524	201.0	91754.0	9674.0	-5606780.0
16	15	14	46	524	202.0	98846.0	7642.0	-5606361.0
16	15	14	46	525	203.0	94044.0	7081.0	-5605484.0
16	15	14	46	525	204.0	80681.0	8871.0	-5605911.0
16	15	14	46	525	205.0	78625.0	9601.0	-5606941.0
16	15	14	46	526	206.0	61905.0	10408.0	-5606277.0
16	15	14	46	526	207.0	44078.0	11043.0	-5605472.0
16	15	14	46	526	208.0	26791.0	11396.0	-5605997.0
16	15	14	46	527	209.0	14029.0	10187.0	-5606210.0
16	15	14	46	527	210.0	4773.0	9414.0	-5605451.0
16	15	14	46	527	211.0	-2185.0	10336.0	-5605192.0
16	15	14	46	528	212.0	-15048.0	12673.0	-5606434.0
16	15	14	46	528	213.0	-6711.0	13945.0	-5605899.0
16	15	14	46	528	214.0	2548.0	15104.0	-5605077.0
16	15	14	46	529	215.0	7797.0	15945.0	-5605274.0
16	15	14	46	529	216.0	15183.0	17047.0	-5606389.0
16	15	14	46	529	217.0	13564.0	18051.0	-5605664.0
16	15	14	46	530	218.0	11035.0	20048.0	-5604875.0
