16	14	55	59	252	234.0	-317224.0	-5060.0	-5691122.0
16	14	55	59	254	235.0	-406716.0	-7680.0	-5690463.0
16	14	55	59	281	236.0	-336726.0	-9821.0	-5689755.0
16	14	55	59	282	237.0	-149414.0	-11761.0	-5690032.0
16	14	55	59	282	238.0	83029.0	-13847.0	-5691226.0
16	14	55	59	283	239.0	406654.0	-15636.0	-5690616.0
16	14	55	59	283	240.0	701176.0	-17207.0	-5689946.0
16	14	55	59	283	241.0	944918.0	-18597.0	-5690598.0
16	14	55	59	284	242.0	1112004.0	-21097.0	-5691423.0
16	14	55	59	284	243.0	1043997.0	-23205.0	-5690676.0
16	14	55	59	285	244.0	773569.0	-24425.0	-5689881.0
16	14	55	59	285	245.0	600333.0	-24820.0	-5690128.0
16	14	55	59	286	246.0	420135.0	-26866.0	-5691072.0
16	14	55	59	286	247.0	291813.0	-28127.0	-5690501.0
16	14	55	59	286	248.0	289077.0	-28464.0	-5689724.0
16	14	55	59	287	249.0	288871.0	-29651.0	-5690036.0
16	14	55	59	287	250.0	305064.0	-31532.0	-5691110.0
16	14	55	59	288	251.0	365891.0	-32031.0	-5690586.0
16	14	55	59	288	252.0	432018.0	-33054.0	-5689865.0
16	14	55	59	289	253.0	501806.0	-33938.0	-5690490.0
16	14	55	59	289	254.0	564297.0	-35894.0	-5691161.0
16	14	55	59	289	255.0	687840.0	-35517.0	-5690492.0
16	14	55	59	290	0.0	804543.0	-36092.0	-5689684.0
16	14	55	59	319	1.0	905959.0	-38009.0	-5690004.0
16	14	55	59	343	2.0	1024996.0	-38782.0	-5691047.0
16	14	55	59	344	3.0	1178668.0	-38219.0	-5690494.0
16	14	55	59	344	4.0	1330387.0	-38867.0	-5689666.0
16	14	55	59	344	5.0	1370496.0	-40088.0	-5690061.0
16	14	55	59	344	6.0	1387457.0	-40909.0	-5691160.0
16	14	55	59	345	7.0	1344281.0	-41781.0	-5690631.0
16	14	55	59	380	8.0	1240450.0	-41700.0	-5689787.0
16	14	55	59	394	9.0	1094176.0	-42146.0	-5689874.0
16	14	55	59	394	10.0	866565.0	-42140.0	-5691061.0
16	14	55	59	394	11.0	601531.0	-42477.0	-5690647.0
16	14	55	59	395	12.0	402156.0	-42801.0	-5689873.0
16	14	55	59	395	13.0	222432.0	-43391.0	-5690767.0
16	14	55	59	395	14.0	7535.0	-43792.0	-5691689.0
16	14	55	59	395	15.0	-235792.0	-44026.0	-5691047.0
16	14	55	59	396	16.0	-447839.0	-43908.0	-5690209.0
16	14	55	59	396	30.0	306081.0	-41033.0	-5691377.0
16	14	55	59	396	31.0	291194.0	-41202.0	-5690864.0
16	14	55	59	397	32.0	231598.0	-41159.0	-5690108.0
16	14	55	59	397	33.0	175383.0	-39871.0	-5690175.0
16	14	55	59	397	34.0	133668.0	-38584.0	-5690726.0
16	14	55	59	397	35.0	168576.0	-37736.0	-5690046.0
16	14	55	59	398	52.0	-402789.0	-22018.0	-5689465.0
16	14	55	59	398	53.0	-310404.0	-21569.0	-5690396.0
16	14	55	59	398	54.0	-168689.0	-21406.0	-5690871.0
16	14	55	59	399	55.0	-48031.0	-20883.0	-5690091.0
16	14	55	59	399	56.0	44143.0	-20002.0	-5689598.0
16	14	55	59	399	57.0	116020.0	-19002.0	-5690713.0
16	14	55	59	399	58.0	163224.0	-17844.0	-5691084.0
16	14	55	59	426	59.0	163933.0	-16767.0	-5690282.0
16	14	55	59	443	60.0	128497.0	-15404.0	-5689719.0
16	14	55	59	444	61.0	66372.0	-13851.0	-5690646.0
16	14	55	59	444	62.0	5809.0	-12718.0	-5691104.0
16	14	55	59	444	63.0	-44361.0	-12117.0	-5690251.0
16	14	55	59	444	64.0	-62211.0	-11442.0	-5689756.0
16	14	55	59	445	65.0	-25186.0	-10920.0	-5690906.0
16	14	55	59	445	66.0	61068.0	-9667.0	-5691129.0
16	14	55	59	445	67.0	162233.0	-8436.0	-5690295.0
16	14	55	59	445	68.0	269149.0	-7664.0	-5689642.0
16	14	55	59	445	69.0	370806.0	-7113.0	-5690196.0
16	14	55	59	446	70.0	457139.0	-6616.0	-5690936.0
16	14	55	59	446	71.0	492226.0	-6215.0	-5690192.0
16	14	55	59	446	72.0	470907.0	-5908.0	-5689521.0
16	14	55	59	446	73.0	418915.0	-5500.0	-5690327.0
16	14	55	59	446	75.0	300453.0	-3846.0	-5690317.0
16	14	55	59	447	76.0	263172.0	-3702.0	-5689816.0
16	14	55	59	447	77.0	247886.0	-3834.0	-5690812.0
16	14	55	59	447	78.0	226683.0	-3529.0	-5690900.0
16	14	55	59	447	79.0	202396.0	-3051.0	-5690102.0
16	14	55	59	447	80.0	186331.0	-2191.0	-5689508.0
16	14	55	59	470	81.0	158318.0	-1714.0	-5690727.0
16	14	55	59	489	82.0	153207.0	-1415.0	-5691306.0
16	14	55	59	489	83.0	174714.0	21.0	-5690561.0
16	14	55	59	489	84.0	205807.0	1087.0	-5689810.0
16	14	55	59	489	85.0	233486.0	1068.0	-5690254.0
16	14	55	59	490	86.0	255549.0	1082.0	-5691245.0
16	14	55	59	490	87.0	275648.0	1071.0	-5690657.0
16	14	55	59	490	88.0	287590.0	1518.0	-5689824.0
16	14	55	59	490	89.0	274011.0	1213.0	-5690169.0
16	14	55	59	491	90.0	244706.0	1143.0	-5691256.0
16	14	55	59	491	91.0	212356.0	1123.0	-5690723.0
16	14	55	59	491	92.0	173068.0	1569.0	-5689980.0
16	14	55	59	491	93.0	132393.0	1458.0	-5690889.0
16	14	55	59	492	94.0	78178.0	1586.0	-5691556.0
16	14	55	59	492	95.0	5406.0	1001.0	-5690849.0
16	14	55	59	492	97.0	-105747.0	1833.0	-5690731.0
16	14	55	59	492	98.0	-133673.0	1856.0	-5691386.0
16	14	55	59	493	99.0	-130511.0	1380.0	-5690726.0
16	14	55	59	493	100.0	-129397.0	1613.0	-5689882.0
16	14	55	59	493	101.0	-112879.0	1580.0	-5690212.0
16	14	55	59	493	102.0	-89802.0	1755.0	-5691256.0
16	14	55	59	494	103.0	-66396.0	1691.0	-5690745.0
16	14	55	59	514	104.0	-45234.0	1759.0	-5689973.0
16	14	55	59	530	105.0	-23996.0	1605.0	-5690751.0
16	14	55	59	530	106.0	408.0	1954.0	-5691587.0
16	14	55	59	530	107.0	-17374.0	2108.0	-5690936.0
16	14	55	59	530	108.0	-31813.0	2436.0	-5690119.0
16	14	55	59	531	109.0	-51297.0	2929.0	-5690471.0
16	14	55	59	531	110.0	-73920.0	2900.0	-5691641.0
16	14	55	59	531	111.0	-87235.0	2272.0	-5691099.0
16	14	55	59	531	112.0	-73467.0	2454.0	-5690308.0
16	14	55	59	532	113.0	-52009.0	3023.0	-5690617.0
16	14	55	59	532	114.0	-23171.0	2910.0	-5691429.0
16	14	55	59	532	115.0	95.0	2318.0	-5690780.0
16	14	55	59	532	116.0	11363.0	2124.0	-5690024.0
16	14	55	59	532	117.0	23148.0	2248.0	-5690139.0
16	14	55	59	533	118.0	32497.0	2656.0	-5690783.0
16	14	55	59	533	120.0	33631.0	2840.0	-5689734.0
16	14	55	59	533	121.0	37888.0	1356.0	-5691181.0
16	14	55	59	533	122.0	53757.0	1029.0	-5691312.0
16	14	55	59	534	123.0	97455.0	1111.0	-5690582.0
16	14	55	59	534	124.0	154447.0	1414.0	-5690487.0
16	14	55	59	534	125.0	185632.0	1524.0	-5691745.0
16	14	55	59	559	126.0	185265.0	1559.0	-5691358.0
16	14	55	59	577	127.0	170153.0	1961.0	-5690566.0
16	14	55	59	578	128.0	136581.0	2986.0	-5690177.0
16	14	55	59	578	129.0	106431.0	3263.0	-5691354.0
16	14	55	59	578	130.0	79926.0	3614.0	-5691242.0
16	14	55	59	579	131.0	57926.0	3530.0	-5690412.0
16	14	55	59	579	132.0	33702.0	3703.0	-5689926.0
16	14	55	59	579	133.0	-2298.0	2860.0	-5690967.0
16	14	55	59	580	134.0	-30052.0	2612.0	-5691115.0
16	14	55	59	580	135.0	-39596.0	2615.0	-5690270.0
16	14	55	59	580	136.0	-26705.0	2794.0	-5689934.0
16	14	55	59	580	137.0	-10886.0	3249.0	-5691064.0
16	14	55	59	581	138.0	9743.0	3383.0	-5691000.0
16	14	55	59	581	139.0	36480.0	3712.0	-5690201.0
16	14	55	59	581	140.0	66684.0	4001.0	-5690091.0
16	14	55	59	581	142.0	168898.0	4624.0	-5691268.0
16	14	55	59	582	143.0	221975.0	4096.0	-5690427.0
16	14	55	59	582	144.0	243666.0	2889.0	-5690243.0
16	14	55	59	582	145.0	232994.0	3192.0	-5691370.0
16	14	55	59	582	146.0	189231.0	3521.0	-5691066.0
16	14	55	59	583	147.0	112375.0	3585.0	-5690170.0
16	14	55	59	583	148.0	31300.0	3564.0	-5689709.0
16	14	55	59	604	149.0	-41627.0	4101.0	-5690793.0
16	14	55	59	620	150.0	-93700.0	4711.0	-5690775.0
16	14	55	59	620	151.0	-114217.0	5304.0	-5689951.0
16	14	55	59	620	152.0	-119434.0	5026.0	-5689600.0
16	14	55	59	621	153.0	-121243.0	5583.0	-5690927.0
16	14	55	59	621	154.0	-103944.0	5586.0	-5690858.0
16	14	55	59	621	155.0	-71076.0	5705.0	-5690073.0
16	14	55	59	621	156.0	-18083.0	6232.0	-5689930.0
16	14	55	59	622	157.0	41919.0	7119.0	-5691316.0
16	14	55	59	622	158.0	120229.0	7024.0	-5691048.0
16	14	55	59	622	159.0	225434.0	7188.0	-5690252.0
16	14	55	59	622	160.0	341682.0	7217.0	-5689877.0
16	14	55	59	623	161.0	452107.0	7157.0	-5691077.0
16	14	55	59	623	162.0	554453.0	7171.0	-5690984.0
16	14	55	59	623	163.0	636180.0	7121.0	-5690197.0
16	14	55	59	623	165.0	812024.0	6955.0	-5691171.0
16	14	55	59	624	166.0	901764.0	5799.0	-5691218.0
16	14	55	59	624	167.0	969823.0	5451.0	-5690486.0
16	14	55	59	624	168.0	981235.0	5465.0	-5689826.0
16	14	55	59	624	169.0	774782.0	5863.0	-5690939.0
16	14	55	59	625	170.0	213051.0	6150.0	-5691142.0
16	14	55	59	697	171.0	-643352.0	6085.0	-5690311.0
16	14	55	59	697	172.0	-1663106.0	6344.0	-5689666.0
16	14	55	59	698	173.0	-2692094.0	7829.0	-5690796.0
16	14	55	59	715	174.0	-3316479.0	8259.0	-5690682.0
16	14	55	59	715	175.0	-3084981.0	8083.0	-5689969.0
16	14	55	59	716	176.0	-1937290.0	8325.0	-5689822.0
16	14	55	59	716	177.0	-314469.0	8157.0	-5690982.0
16	14	55	59	717	178.0	1126781.0	8351.0	-5690707.0
16	14	55	59	717	179.0	2015713.0	8648.0	-5690039.0
16	14	55	59	718	180.0	2369373.0	8450.0	-5689758.0
16	14	55	59	718	181.0	2345432.0	8635.0	-5690605.0
16	14	55	59	719	182.0	1956950.0	8431.0	-5690107.0
16	14	55	59	719	183.0	1129864.0	8378.0	-5689759.0
16	14	55	59	720	184.0	59428.0	8230.0	-5690865.0
16	14	55	59	720	185.0	-918791.0	7831.0	-5690561.0
16	14	55	59	721	210.0	631698.0	9879.0	-5689528.0
16	14	55	59	721	211.0	553539.0	8721.0	-5689231.0
16	14	55	59	722	212.0	479879.0	8821.0	-5690461.0
16	14	55	59	722	213.0	389458.0	8703.0	-5690256.0
16	14	55	59	722	214.0	267896.0	8820.0	-5689437.0
16	14	55	59	723	215.0	132121.0	8825.0	-5689257.0
16	14	55	59	750	216.0	2884.0	8642.0	-5690587.0
16	14	55	59	751	217.0	-127297.0	9202.0	-5690272.0
16	14	55	59	751	218.0	-239626.0	10367.0	-5689499.0
16	14	55	59	751	219.0	-301992.0	10206.0	-5689222.0
16	14	55	59	752	220.0	-278969.0	10889.0	-5690545.0
16	14	55	59	752	221.0	-173260.0	10614.0	-5690360.0
16	14	55	59	752	222.0	-4712.0	10582.0	-5689602.0
16	14	55	59	753	223.0	185936.0	10426.0	-5689428.0
16	14	55	59	753	224.0	342841.0	10391.0	-5690829.0
16	14	55	59	753	225.0	432650.0	10118.0	-5690546.0
16	14	55	59	754	226.0	442617.0	10236.0	-5689784.0
16	14	55	59	754	227.0	402801.0	10277.0	-5689160.0
16	14	55	59	755	228.0	330140.0	9744.0	-5690538.0
16	14	55	59	785	229.0	244259.0	9909.0	-5690886.0
16	14	55	59	798	230.0	174649.0	10439.0	-5690147.0
16	14	55	59	798	232.0	137232.0	10143.0	-5690246.0
16	14	55	59	798	233.0	148084.0	9956.0	-5690834.0
16	14	55	59	799	234.0	154981.0	8711.0	-5690169.0
16	14	55	59	799	235.0	164804.0	8689.0	-5689750.0
16	14	55	59	799	236.0	160345.0	8575.0	-5691117.0
16	14	55	59	800	237.0	133989.0	8893.0	-5690967.0
16	14	55	59	800	238.0	100670.0	10285.0	-5690237.0
16	14	55	59	800	239.0	84404.0	10455.0	-5689552.0
16	14	55	59	800	240.0	65923.0	10230.0	-5690662.0
16	14	55	59	801	241.0	59313.0	10516.0	-5691055.0
16	14	55	59	801	242.0	57963.0	10567.0	-5690369.0
16	14	55	59	801	243.0	52873.0	10466.0	-5689707.0
16	14	55	59	801	244.0	60123.0	9730.0	-5690615.0
16	14	55	59	801	255.0	220401.0	12049.0	-5690459.0
16	14	55	59	802	0.0	168923.0	11701.0	-5691269.0
16	14	55	59	802	1.0	120979.0	11982.0	-5690526.0
16	14	55	59	802	2.0	67639.0	12694.0	-5689818.0
16	14	55	59	802	3.0	18821.0	13981.0	-5689899.0
16	14	55	59	803	4.0	-34642.0	14938.0	-5691121.0
16	14	55	59	831	5.0	-89957.0	16338.0	-5690567.0
16	14	55	59	845	6.0	-136766.0	17587.0	-5689810.0
16	14	55	59	846	7.0	-179047.0	19144.0	-5689815.0
16	14	55	59	846	8.0	-208480.0	20461.0	-5691131.0
16	14	55	59	846	9.0	-176424.0	21814.0	-5690649.0
16	14	55	59	847	10.0	-79627.0	23429.0	-5689920.0
16	14	55	59	847	11.0	48266.0	25133.0	-5690191.0
16	14	55	59	848	12.0	168379.0	27556.0	-5691293.0
16	14	55	59	848	13.0	263901.0	29913.0	-5690716.0
16	14	55	59	849	14.0	338299.0	32249.0	-5690002.0
16	14	55	59	849	15.0	414392.0	35584.0	-5690077.0
16	14	55	59	850	16.0	488793.0	38327.0	-5691477.0
16	14	55	59	850	17.0	559691.0	41171.0	-5691000.0
16	14	55	59	867	18.0	602201.0	44052.0	-5690222.0
16	14	55	59	867	19.0	599306.0	46164.0	-5690016.0
16	14	55	59	868	21.0	481251.0	50830.0	-5691099.0
16	14	55	59	869	22.0	428481.0	52441.0	-5690314.0
16	14	55	59	869	23.0	403927.0	53505.0	-5689976.0
16	14	55	59	870	24.0	411397.0	55582.0	-5691293.0
16	14	55	59	870	25.0	418684.0	57293.0	-5691229.0
16	14	55	59	870	26.0	409545.0	58515.0	-5690399.0
16	14	55	59	889	27.0	369974.0	59756.0	-5690498.0
16	14	55	59	890	28.0	296136.0	61071.0	-5691817.0
16	14	55	59	890	29.0	195808.0	62958.0	-5691391.0
16	14	55	59	890	30.0	75086.0	64191.0	-5690573.0
16	14	55	59	890	31.0	-42850.0	65118.0	-5690299.0
16	14	55	59	891	32.0	-142339.0	65335.0	-5691514.0
16	14	55	59	891	33.0	-221026.0	65806.0	-5691325.0
16	14	55	59	891	34.0	-279374.0	66004.0	-5690491.0
16	14	55	59	891	35.0	-312456.0	65841.0	-5690063.0
16	14	55	59	892	36.0	-338585.0	65729.0	-5691217.0
16	14	55	59	892	37.0	-364111.0	65092.0	-5691279.0
16	14	55	59	892	38.0	-390979.0	64796.0	-5690422.0
16	14	55	59	892	39.0	-412684.0	64289.0	-5690277.0
16	14	55	59	892	40.0	-427728.0	63429.0	-5691561.0
16	14	55	59	893	41.0	-440351.0	62669.0	-5691306.0
16	14	55	59	893	44.0	-677367.0	60429.0	-5691662.0
16	14	55	59	893	45.0	-876636.0	58064.0	-5691544.0
16	14	55	59	893	46.0	-928579.0	56644.0	-5690723.0
16	14	55	59	920	47.0	-712653.0	55534.0	-5690622.0
16	14	55	59	920	48.0	-266724.0	54036.0	-5691944.0
16	14	55	59	920	49.0	366036.0	52544.0	-5691768.0
16	14	55	59	921	50.0	915623.0	50869.0	-5690967.0
16	14	55	59	921	51.0	1146896.0	49479.0	-5690392.0
16	14	55	59	943	52.0	941000.0	48791.0	-5691328.0
16	14	55	59	943	53.0	466099.0	47048.0	-5691697.0
16	14	55	59	943	54.0	68376.0	45282.0	-5690868.0
16	14	55	59	944	55.0	-150761.0	43014.0	-5690298.0
16	14	55	59	944	56.0	-267673.0	40923.0	-5691359.0
16	14	55	59	944	57.0	-280561.0	38820.0	-5691616.0
16	14	55	59	944	58.0	-187701.0	36023.0	-5690858.0
16	14	55	59	945	59.0	-55602.0	33804.0	-5690737.0
16	14	55	59	945	60.0	55237.0	32264.0	-5692116.0
16	14	55	59	945	61.0	109482.0	30056.0	-5691844.0
16	14	55	59	945	62.0	93942.0	28049.0	-5691072.0
16	14	55	59	946	63.0	15911.0	25472.0	-5690517.0
16	14	55	59	946	64.0	-83792.0	23193.0	-5691567.0
16	14	55	59	946	66.0	-215389.0	18544.0	-5690846.0
16	14	55	59	946	67.0	-258459.0	15609.0	-5690371.0
16	14	55	59	947	68.0	-304022.0	12469.0	-5691608.0
16	14	55	59	947	69.0	-367696.0	10288.0	-5691432.0
16	14	55	59	947	70.0	-412533.0	8249.0	-5690717.0
16	14	55	59	947	71.0	-421092.0	6363.0	-5690430.0
16	14	55	59	964	72.0	-392851.0	4321.0	-5691288.0
16	14	55	59	964	73.0	-323842.0	3070.0	-5690842.0
16	14	55	59	985	74.0	-217756.0	2128.0	-5690423.0
16	14	55	59	985	75.0	-111633.0	456.0	-5691591.0
16	14	55	59	985	76.0	-5959.0	-1688.0	-5691602.0
16	14	55	59	985	77.0	102011.0	-3707.0	-5690829.0
16	14	55	59	986	78.0	217512.0	-5594.0	-5690509.0
16	14	55	59	986	79.0	314626.0	-7736.0	-5691807.0
16	14	55	59	986	80.0	356984.0	-9466.0	-5691775.0
16	14	55	59	986	81.0	352272.0	-10976.0	-5690959.0
16	14	55	59	987	82.0	324983.0	-12762.0	-5690331.0
16	14	55	59	987	83.0	303578.0	-14324.0	-5691009.0
16	14	55	59	987	84.0	296953.0	-15427.0	-5691454.0
16	14	55	59	987	85.0	305396.0	-16770.0	-5690612.0
16	14	55	59	987	86.0	325734.0	-18126.0	-5689977.0
16	14	55	59	988	88.0	344114.0	-20698.0	-5691276.0
16	14	55	59	988	89.0	323917.0	-22477.0	-5690470.0
16	14	55	59	988	90.0	292716.0	-25035.0	-5689988.0
16	14	55	59	989	91.0	256649.0	-26032.0	-5691089.0
16	14	55	59	989	92.0	212722.0	-26726.0	-5691271.0
16	14	55	59	989	93.0	171802.0	-27752.0	-5690434.0
16	14	55	59	989	94.0	141811.0	-28714.0	-5689952.0
16	14	56	0	13	95.0	123438.0	-29255.0	-5691119.0
16	14	56	0	13	96.0	124349.0	-30192.0	-5691331.0
16	14	56	0	13	97.0	137254.0	-30223.0	-5690509.0
16	14	56	0	28	98.0	153061.0	-31141.0	-5690264.0
16	14	56	0	28	99.0	166518.0	-32376.0	-5691541.0
16	14	56	0	28	100.0	177081.0	-32896.0	-5691367.0
16	14	56	0	29	101.0	191529.0	-33499.0	-5690554.0
16	14	56	0	29	102.0	220229.0	-34338.0	-5689937.0
16	14	56	0	29	103.0	255922.0	-34701.0	-5690929.0
16	14	56	0	29	104.0	288936.0	-34579.0	-5691337.0
16	14	56	0	29	105.0	328888.0	-35448.0	-5690596.0
16	14	56	0	30	106.0	362748.0	-36147.0	-5690246.0
16	14	56	0	30	107.0	401026.0	-36773.0	-5691728.0
16	14	56	0	30	108.0	429294.0	-36997.0	-5691719.0
16	14	56	0	30	109.0	417312.0	-37669.0	-5690939.0
16	14	56	0	30	111.0	253412.0	-37357.0	-5691628.0
16	14	56	0	31	112.0	142749.0	-38086.0	-5691416.0
16	14	56	0	31	113.0	35396.0	-38269.0	-5690636.0
16	14	56	0	31	114.0	-56296.0	-38435.0	-5689981.0
16	14	56	0	48	115.0	-134554.0	-38171.0	-5691014.0
16	14	56	0	49	116.0	-199872.0	-38222.0	-5691177.0
16	14	56	0	100	117.0	-246355.0	-38254.0	-5690468.0
16	14	56	0	100	118.0	-254754.0	-37704.0	-5690120.0
16	14	56	0	114	119.0	-236131.0	-36480.0	-5690870.0
16	14	56	0	114	120.0	-189028.0	-36038.0	-5690352.0
16	14	56	0	115	121.0	-118585.0	-35854.0	-5689600.0
16	14	56	0	115	122.0	-31712.0	-34909.0	-5689571.0
16	14	56	0	116	123.0	68579.0	-34402.0	-5690509.0
16	14	56	0	116	124.0	169371.0	-33626.0	-5689976.0
16	14	56	0	117	125.0	260046.0	-33524.0	-5689996.0
16	14	56	0	117	126.0	320536.0	-33641.0	-5691202.0
16	14	56	0	118	127.0	344166.0	-32948.0	-5690734.0
16	14	56	0	118	128.0	331466.0	-32469.0	-5689964.0
16	14	56	0	119	129.0	302121.0	-31527.0	-5690106.0
16	14	56	0	119	130.0	274149.0	-30875.0	-5691231.0
16	14	56	0	120	131.0	256049.0	-29954.0	-5690702.0
16	14	56	0	120	156.0	-34218.0	-10906.0	-5690514.0
16	14	56	0	120	157.0	-21561.0	-11332.0	-5690379.0
16	14	56	0	121	158.0	6070.0	-11017.0	-5691545.0
16	14	56	0	121	159.0	40149.0	-9927.0	-5691129.0
16	14	56	0	122	160.0	65979.0	-8744.0	-5690362.0
16	14	56	0	122	161.0	88918.0	-7635.0	-5690279.0
16	14	56	0	149	162.0	127976.0	-7058.0	-5691639.0
16	14	56	0	149	163.0	166068.0	-6128.0	-5691189.0
16	14	56	0	150	164.0	192594.0	-4640.0	-5690451.0
16	14	56	0	150	165.0	220036.0	-3555.0	-5689846.0
16	14	56	0	150	166.0	235051.0	-3228.0	-5691252.0
16	14	56	0	151	167.0	236995.0	-2499.0	-5691642.0
16	14	56	0	151	168.0	232864.0	-2135.0	-5690941.0
16	14	56	0	151	169.0	229341.0	-1671.0	-5690544.0
16	14	56	0	174	170.0	231454.0	-959.0	-5691741.0
16	14	56	0	175	171.0	233962.0	-533.0	-5691440.0
16	14	56	0	175	172.0	226311.0	-297.0	-5690721.0
16	14	56	0	175	173.0	215746.0	262.0	-5690186.0
16	14	56	0	176	174.0	198643.0	657.0	-5691401.0
16	14	56	0	176	175.0	161495.0	1398.0	-5691329.0
16	14	56	0	176	176.0	115699.0	1661.0	-5690627.0
16	14	56	0	176	178.0	57861.0	2486.0	-5690917.0
16	14	56	0	177	179.0	53640.0	2141.0	-5690581.0
16	14	56	0	177	180.0	46996.0	1847.0	-5689937.0
16	14	56	0	177	181.0	36768.0	2239.0	-5690736.0
16	14	56	0	177	182.0	26364.0	2940.0	-5691477.0
16	14	56	0	195	183.0	16728.0	3557.0	-5690673.0
16	14	56	0	195	184.0	9678.0	4027.0	-5690001.0
16	14	56	0	195	185.0	14908.0	4446.0	-5690427.0
16	14	56	0	195	186.0	34569.0	5158.0	-5691321.0
16	14	56	0	196	187.0	54764.0	5721.0	-5690611.0
16	14	56	0	196	188.0	82341.0	5342.0	-5690098.0
16	14	56	0	196	189.0	131074.0	4883.0	-5691098.0
16	14	56	0	196	190.0	193470.0	5061.0	-5691408.0
16	14	56	0	215	191.0	244574.0	5776.0	-5690605.0
16	14	56	0	216	192.0	269311.0	5958.0	-5689936.0
16	14	56	0	216	193.0	280142.0	5835.0	-5690566.0
16	14	56	0	216	194.0	272026.0	6098.0	-5691405.0
16	14	56	0	217	195.0	243950.0	5765.0	-5690611.0
16	14	56	0	217	196.0	221721.0	5060.0	-5689935.0
16	14	56	0	217	197.0	211709.0	5098.0	-5690396.0
16	14	56	0	217	201.0	264337.0	5290.0	-5690256.0
16	14	56	0	218	202.0	274481.0	4067.0	-5691312.0
16	14	56	0	218	203.0	288248.0	3656.0	-5690722.0
16	14	56	0	218	204.0	293388.0	3874.0	-5690048.0
16	14	56	0	218	205.0	290172.0	3751.0	-5690939.0
16	14	56	0	219	206.0	284363.0	3517.0	-5691458.0
16	14	56	0	236	207.0	280843.0	3321.0	-5690729.0
16	14	56	0	256	208.0	278337.0	3564.0	-5690126.0
16	14	56	0	257	209.0	242891.0	4878.0	-5691241.0
16	14	56	0	257	210.0	176373.0	4459.0	-5691493.0
16	14	56	0	257	211.0	104566.0	4256.0	-5690737.0
16	14	56	0	258	212.0	42618.0	4566.0	-5689898.0
16	14	56	0	258	213.0	4495.0	4693.0	-5690305.0
16	14	56	0	258	214.0	-19756.0	4383.0	-5690934.0
16	14	56	0	258	215.0	-37773.0	4578.0	-5690317.0
16	14	56	0	259	216.0	-35316.0	4557.0	-5689567.0
16	14	56	0	259	217.0	-19290.0	4426.0	-5690422.0
16	14	56	0	259	218.0	-93443.0	4305.0	-5690806.0
16	14	56	0	259	219.0	-158854.0	4037.0	-5690110.0
16	14	56	0	260	220.0	-147196.0	4182.0	-5689456.0
16	14	56	0	260	221.0	-113574.0	4336.0	-5690616.0
16	14	56	0	260	223.0	-116420.0	4700.0	-5690201.0
16	14	56	0	260	224.0	-113880.0	4242.0	-5689529.0
16	14	56	0	261	225.0	-95526.0	2658.0	-5690666.0
16	14	56	0	261	226.0	-71681.0	2363.0	-5691067.0
16	14	56	0	261	227.0	-38166.0	2329.0	-5690338.0
16	14	56	0	261	228.0	-1804.0	2546.0	-5689651.0
16	14	56	0	262	229.0	32800.0	2932.0	-5690277.0
16	14	56	0	280	230.0	71481.0	3294.0	-5690377.0
16	14	56	0	280	231.0	96867.0	3664.0	-5689685.0
16	14	56	0	301	232.0	97272.0	4463.0	-5689783.0
16	14	56	0	301	233.0	82734.0	4633.0	-5690972.0
16	14	56	0	302	234.0	64100.0	5066.0	-5690395.0
16	14	56	0	302	235.0	38997.0	5024.0	-5689731.0
16	14	56	0	302	236.0	-323.0	4403.0	-5690236.0
16	14	56	0	302	237.0	-41310.0	3943.0	-5691230.0
16	14	56	0	303	238.0	-83191.0	3733.0	-5690526.0
16	14	56	0	303	239.0	-119891.0	3954.0	-5689833.0
16	14	56	0	303	240.0	-136723.0	3758.0	-5690149.0
16	14	56	0	303	241.0	-130294.0	3662.0	-5691179.0
16	14	56	0	304	242.0	-94516.0	3973.0	-5690519.0
16	14	56	0	304	243.0	-31114.0	3978.0	-5689769.0
16	14	56	0	304	244.0	44198.0	3909.0	-5689471.0
16	14	56	0	304	246.0	218289.0	4179.0	-5690583.0
16	14	56	0	305	247.0	317432.0	2946.0	-5689838.0
16	14	56	0	305	248.0	415060.0	2508.0	-5689861.0
16	14	56	0	305	249.0	505849.0	2726.0	-5691086.0
16	14	56	0	305	250.0	590971.0	3026.0	-5690626.0
16	14	56	0	306	251.0	665228.0	3024.0	-5689891.0
16	14	56	0	324	252.0	725894.0	3199.0	-5690129.0
16	14	56	0	345	253.0	766456.0	3873.0	-5691159.0
16	14	56	0	345	254.0	777687.0	4993.0	-5690573.0
16	14	56	0	346	255.0	757598.0	4839.0	-5689820.0
16	14	56	0	346	0.0	733019.0	4633.0	-5690016.0
16	14	56	0	346	1.0	741608.0	4763.0	-5691255.0
16	14	56	0	346	2.0	768816.0	4296.0	-5690755.0
16	14	56	0	347	3.0	727309.0	4544.0	-5689962.0
16	14	56	0	347	4.0	444032.0	5056.0	-5689896.0
16	14	56	0	347	5.0	-139735.0	5151.0	-5691056.0
16	14	56	0	347	6.0	-820130.0	5124.0	-5690624.0
16	14	56	0	348	7.0	-1566718.0	5025.0	-5689709.0
16	14	56	0	348	8.0	-2158873.0	5194.0	-5689293.0
16	14	56	0	348	9.0	-2273612.0	5084.0	-5690438.0
16	14	56	0	348	10.0	-1803778.0	5529.0	-5690424.0
16	14	56	0	349	12.0	96163.0	4957.0	-5690017.0
16	14	56	0	349	13.0	810544.0	4461.0	-5691181.0
16	14	56	0	349	14.0	1209034.0	3636.0	-5690743.0
16	14	56	0	350	15.0	1481664.0	3689.0	-5689931.0
16	14	56	0	350	16.0	1564108.0	4139.0	-5689791.0
16	14	56	0	350	17.0	1249339.0	4206.0	-5691032.0
16	14	56	0	350	18.0	606261.0	4471.0	-5690738.0
16	14	56	0	370	19.0	-113178.0	4576.0	-5689789.0
16	14	56	0	389	20.0	-708539.0	5052.0	-5689573.0
16	14	56	0	389	21.0	-1093767.0	5564.0	-5690791.0
16	14	56	0	389	22.0	-1291179.0	5700.0	-5690509.0
16	14	56	0	389	23.0	-1203432.0	6074.0	-5689694.0
16	14	56	0	390	24.0	-876397.0	5691.0	-5689366.0
16	14	56	0	390	25.0	-622014.0	5896.0	-5690651.0
16	14	56	0	390	26.0	-396217.0	6153.0	-5690611.0
16	14	56	0	390	27.0	-96370.0	6380.0	-5689852.0
16	14	56	0	391	28.0	269373.0	6649.0	-5689684.0
16	14	56	0	391	29.0	584090.0	6271.0	-5690824.0
16	14	56	0	391	30.0	759212.0	5868.0	-5690519.0
16	14	56	0	391	31.0	741556.0	5768.0	-5689731.0
16	14	56	0	392	32.0	506156.0	5818.0	-5689887.0
16	14	56	0	392	33.0	203268.0	5950.0	-5691087.0
16	14	56	0	392	35.0	40911.0	5938.0	-5689757.0
16	14	56	0	392	36.0	168516.0	5227.0	-5689211.0
16	14	56	0	393	37.0	364904.0	5256.0	-5690427.0
16	14	56	0	393	38.0	545994.0	5477.0	-5690557.0
16	14	56	0	393	39.0	651273.0	5811.0	-5689838.0
16	14	56	0	393	40.0	663222.0	5704.0	-5689344.0
16	14	56	0	415	41.0	607854.0	5875.0	-5690786.0
16	14	56	0	416	42.0	537211.0	6468.0	-5690833.0
16	14	56	0	416	43.0	473444.0	7751.0	-5690134.0
16	14	56	0	416	44.0	416143.0	8151.0	-5689591.0
16	14	56	0	431	45.0	358577.0	7946.0	-5690847.0
16	14	56	0	431	46.0	300681.0	8198.0	-5690965.0
16	14	56	0	432	47.0	258287.0	8046.0	-5690259.0
16	14	56	0	432	48.0	237708.0	7911.0	-5689617.0
16	14	56	0	432	49.0	213502.0	7635.0	-5690964.0
16	14	56	0	432	50.0	186871.0	7204.0	-5691284.0
16	14	56	0	433	51.0	166449.0	7339.0	-5690540.0
16	14	56	0	433	52.0	120531.0	7619.0	-5689853.0
16	14	56	0	433	53.0	46523.0	7814.0	-5690939.0
16	14	56	0	433	54.0	-22880.0	7424.0	-5691106.0
16	14	56	0	434	55.0	-52399.0	8270.0	-5690398.0
16	14	56	0	434	57.0	-9282.0	8135.0	-5690462.0
16	14	56	0	434	58.0	30731.0	7584.0	-5691085.0
16	14	56	0	435	59.0	66368.0	7162.0	-5690425.0
16	14	56	0	435	60.0	93206.0	6823.0	-5689824.0
16	14	56	0	435	61.0	102753.0	6984.0	-5690523.0
16	14	56	0	435	62.0	110113.0	6902.0	-5690293.0
16	14	56	0	459	63.0	125183.0	6926.0	-5689712.0
16	14	56	0	479	64.0	145621.0	7247.0	-5690554.0
16	14	56	0	479	65.0	176166.0	8540.0	-5691117.0
16	14	56	0	479	66.0	198947.0	9023.0	-5690277.0
16	14	56	0	480	67.0	205400.0	8974.0	-5689570.0
16	14	56	0	480	68.0	197170.0	9033.0	-5689926.0
16	14	56	0	480	69.0	183754.0	8999.0	-5691022.0
16	14	56	0	504	70.0	170724.0	8463.0	-5690322.0
16	14	56	0	505	71.0	158759.0	7872.0	-5689637.0
16	14	56	0	550	72.0	143727.0	8308.0	-5690276.0
16	14	56	0	595	73.0	131696.0	8395.0	-5691128.0
16	14	56	0	596	74.0	136856.0	9034.0	-5690396.0
16	14	56	0	596	75.0	145212.0	9143.0	-5689722.0
16	14	56	0	618	76.0	123963.0	9084.0	-5690334.0
16	14	56	0	619	77.0	75266.0	9238.0	-5691440.0
16	14	56	0	619	80.0	48116.0	9431.0	-5690792.0
16	14	56	0	620	81.0	50693.0	7939.0	-5691684.0
16	14	56	0	620	82.0	67418.0	7684.0	-5690949.0
16	14	56	0	621	83.0	84970.0	8492.0	-5690194.0
16	14	56	0	621	84.0	87723.0	9898.0	-5690402.0
16	14	56	0	622	85.0	80946.0	10243.0	-5691752.0
16	14	56	0	622	86.0	67189.0	9951.0	-5691255.0
16	14	56	0	623	102.0	12873.0	26159.0	-5691182.0
16	14	56	0	623	103.0	66602.0	27432.0	-5690341.0
16	14	56	0	624	124.0	209826.0	64448.0	-5689917.0
16	14	56	0	624	147.0	79904.0	38541.0	-5689159.0
16	14	56	0	625	148.0	-29829.0	35381.0	-5689557.0
16	14	56	0	625	149.0	-78377.0	32406.0	-5690375.0
16	14	56	0	626	150.0	-63219.0	30018.0	-5689668.0
16	14	56	0	626	151.0	-12981.0	27494.0	-5689111.0
16	14	56	0	627	152.0	27972.0	25613.0	-5690062.0
16	14	56	0	681	153.0	30767.0	23439.0	-5690505.0
16	14	56	0	681	154.0	-2097.0	21426.0	-5689666.0
16	14	56	0	682	155.0	-58266.0	20331.0	-5689134.0
16	14	56	0	682	156.0	-126332.0	18317.0	-5690226.0
16	14	56	0	682	157.0	-185859.0	16720.0	-5690791.0
16	14	56	0	682	158.0	-220928.0	14328.0	-5689986.0
16	14	56	0	683	159.0	-244326.0	11474.0	-5689384.0
16	14	56	0	683	160.0	-258889.0	9409.0	-5690263.0
16	14	56	0	683	161.0	-255543.0	7104.0	-5690911.0
16	14	56	0	684	162.0	-245669.0	5050.0	-5690077.0
16	14	56	0	684	163.0	-199997.0	2798.0	-5689365.0
16	14	56	0	684	164.0	-110056.0	306.0	-5689947.0
16	14	56	0	684	165.0	-6339.0	-1686.0	-5690972.0
16	14	56	0	685	166.0	74304.0	-3612.0	-5690318.0
16	14	56	0	685	167.0	121339.0	-5722.0	-5689601.0
16	14	56	0	685	169.0	101058.0	-9442.0	-5690990.0
16	14	56	0	685	170.0	62981.0	-11650.0	-5690377.0
16	14	56	0	686	171.0	24058.0	-14461.0	-5689847.0
16	14	56	0	686	172.0	2874.0	-16141.0	-5690934.0
16	14	56	0	686	173.0	21398.0	-16979.0	-5691215.0
16	14	56	0	686	174.0	66543.0	-18396.0	-5690477.0
16	14	56	0	687	175.0	120089.0	-19361.0	-5689787.0
16	14	56	0	721	176.0	159959.0	-20715.0	-5690465.0
16	14	56	0	721	177.0	189083.0	-21692.0	-5691252.0
16	14	56	0	722	178.0	215450.0	-21821.0	-5690560.0
16	14	56	0	722	179.0	252186.0	-23036.0	-5689720.0
16	14	56	0	722	180.0	298840.0	-24042.0	-5689929.0
16	14	56	0	723	181.0	354690.0	-25356.0	-5691079.0
16	14	56	0	723	182.0	405760.0	-26097.0	-5690618.0
16	14	56	0	723	183.0	438216.0	-27124.0	-5689809.0
16	14	56	0	723	184.0	438484.0	-28242.0	-5689953.0
16	14	56	0	724	185.0	423958.0	-29568.0	-5691258.0
16	14	56	0	724	186.0	407474.0	-30142.0	-5690868.0
16	14	56	0	724	187.0	388283.0	-30800.0	-5690061.0
16	14	56	0	724	188.0	357288.0	-31759.0	-5690264.0
16	14	56	0	725	189.0	312609.0	-32626.0	-5691401.0
16	14	56	0	725	190.0	266288.0	-33273.0	-5690924.0
16	14	56	0	725	192.0	216648.0	-34602.0	-5690356.0
16	14	56	0	725	193.0	184473.0	-35851.0	-5691342.0
16	14	56	0	726	194.0	134853.0	-37159.0	-5690819.0
16	14	56	0	726	195.0	74638.0	-37302.0	-5689922.0
16	14	56	0	726	196.0	18632.0	-37378.0	-5689776.0
16	14	56	0	727	197.0	-22214.0	-37888.0	-5691127.0
16	14	56	0	762	198.0	-49309.0	-38045.0	-5690901.0
16	14	56	0	763	199.0	-54077.0	-38035.0	-5690062.0
16	14	56	0	763	200.0	-43584.0	-37590.0	-5689919.0
16	14	56	0	763	201.0	-21376.0	-37115.0	-5691284.0
16	14	56	0	764	202.0	2919.0	-37399.0	-5691043.0
16	14	56	0	764	203.0	19521.0	-37763.0	-5690238.0
16	14	56	0	764	204.0	23074.0	-38139.0	-5690147.0
16	14	56	0	764	205.0	22848.0	-37624.0	-5691359.0
16	14	56	0	765	206.0	19941.0	-37466.0	-5691007.0
16	14	56	0	765	207.0	18178.0	-37397.0	-5690245.0
16	14	56	0	765	208.0	26998.0	-37657.0	-5690136.0
16	14	56	0	765	209.0	43243.0	-38000.0	-5691267.0
16	14	56	0	766	210.0	62603.0	-37873.0	-5690874.0
16	14	56	0	766	211.0	75936.0	-37882.0	-5690082.0
16	14	56	0	766	212.0	77601.0	-37653.0	-5689874.0
16	14	56	0	766	214.0	92054.0	-36540.0	-5691094.0
16	14	56	0	767	215.0	115359.0	-36101.0	-5690364.0
16	14	56	0	767	216.0	141716.0	-36037.0	-5689780.0
16	14	56	0	767	217.0	176597.0	-35778.0	-5690864.0
16	14	56	0	768	218.0	214883.0	-35413.0	-5690876.0
16	14	56	0	768	219.0	250763.0	-34963.0	-5690178.0
16	14	56	0	768	220.0	259693.0	-33865.0	-5690033.0
16	14	56	0	821	221.0	250368.0	-32752.0	-5691287.0
16	14	56	0	852	222.0	237911.0	-31914.0	-5690855.0
16	14	56	0	852	223.0	232642.0	-30606.0	-5690170.0
16	14	56	0	853	224.0	228194.0	-29367.0	-5689904.0
16	14	56	0	853	225.0	211247.0	-28706.0	-5690810.0
16	14	56	0	853	226.0	183686.0	-27950.0	-5690291.0
16	14	56	0	853	227.0	140401.0	-27844.0	-5689645.0
16	14	56	0	854	228.0	85153.0	-27874.0	-5690553.0
16	14	56	0	854	229.0	34519.0	-26863.0	-5691195.0
16	14	56	0	854	230.0	456.0	-26167.0	-5690369.0
16	14	56	0	855	231.0	-23501.0	-25560.0	-5689895.0
16	14	56	0	855	232.0	-41381.0	-24505.0	-5690996.0
16	14	56	0	855	233.0	-46077.0	-23381.0	-5691175.0
16	14	56	0	855	234.0	-45048.0	-23001.0	-5690322.0
16	14	56	0	856	235.0	-40134.0	-22011.0	-5689759.0
16	14	56	0	856	3.0	359809.0	-2767.0	-5689486.0
16	14	56	0	856	4.0	364306.0	-2779.0	-5690617.0
16	14	56	0	856	5.0	344014.0	-3139.0	-5691039.0
16	14	56	0	857	6.0	299646.0	-2416.0	-5690310.0
16	14	56	0	857	7.0	234026.0	-2263.0	-5689611.0
16	14	56	0	857	8.0	166549.0	-1987.0	-5690480.0
16	14	56	0	857	9.0	108989.0	-1302.0	-5690887.0
16	14	56	0	898	10.0	67624.0	-836.0	-5690176.0
16	14	56	0	899	11.0	34540.0	409.0	-5689466.0
16	14	56	0	899	12.0	9789.0	1480.0	-5690489.0
16	14	56	0	899	13.0	-15067.0	1384.0	-5691049.0
16	14	56	0	900	14.0	-39694.0	1630.0	-5690356.0
16	14	56	0	900	15.0	-58852.0	1648.0	-5689702.0
16	14	56	0	900	16.0	-64701.0	1575.0	-5690877.0
16	14	56	0	900	17.0	-61879.0	2441.0	-5691107.0
16	14	56	0	901	18.0	-60419.0	2639.0	-5690373.0
16	14	56	0	901	19.0	-52653.0	3157.0	-5689546.0
16	14	56	0	901	20.0	-34863.0	3454.0	-5690172.0
16	14	56	0	902	21.0	-11644.0	3988.0	-5690794.0
16	14	56	0	902	22.0	12162.0	4060.0	-5690181.0
16	14	56	0	902	23.0	31571.0	4111.0	-5689412.0
16	14	56	0	947	24.0	52274.0	4601.0	-5690135.0
16	14	56	0	947	26.0	104531.0	4461.0	-5690237.0
16	14	56	0	948	27.0	134304.0	3503.0	-5689633.0
16	14	56	0	948	28.0	148844.0	3582.0	-5690752.0
16	14	56	0	949	29.0	156513.0	3573.0	-5690966.0
16	14	56	0	949	30.0	169590.0	3456.0	-5690256.0
16	14	56	0	949	31.0	185771.0	3976.0	-5689527.0
16	14	56	0	950	32.0	186391.0	5326.0	-5690174.0
16	14	56	0	950	33.0	172094.0	5624.0	-5690330.0
16	14	56	0	950	34.0	139817.0	5718.0	-5689633.0
16	14	56	0	951	35.0	107021.0	5026.0	-5689842.0
16	14	56	0	951	36.0	83107.0	5156.0	-5691049.0
16	14	56	0	951	37.0	82330.0	4981.0	-5690421.0
16	14	56	0	952	38.0	93306.0	4849.0	-5689693.0
16	14	56	0	952	39.0	108153.0	4758.0	-5689516.0
16	14	56	0	952	48.0	12149.0	4119.0	-5691051.0
16	14	56	0	953	49.0	14806.0	3565.0	-5690413.0
16	14	56	0	953	50.0	22168.0	2756.0	-5689639.0
16	14	56	0	953	51.0	37224.0	2647.0	-5689285.0
16	14	56	0	954	52.0	61499.0	3129.0	-5690399.0
16	14	56	0	954	53.0	82266.0	3275.0	-5690203.0
16	14	56	0	954	54.0	92923.0	2790.0	-5689417.0
16	14	56	0	997	55.0	93131.0	2479.0	-5689484.0
16	14	56	0	997	56.0	78689.0	3236.0	-5690701.0
16	14	56	0	998	57.0	62118.0	4225.0	-5690277.0
16	14	56	1	0	58.0	48747.0	4488.0	-5689456.0
16	14	56	1	0	59.0	25869.0	4313.0	-5689537.0
16	14	56	1	1	60.0	-667.0	4159.0	-5690753.0
16	14	56	1	3	61.0	-13783.0	4021.0	-5690339.0
16	14	56	1	4	62.0	-788.0	3932.0	-5689532.0
16	14	56	1	5	63.0	24758.0	3386.0	-5689427.0
16	14	56	1	6	64.0	51039.0	3752.0	-5690861.0
16	14	56	1	7	65.0	76559.0	3779.0	-5690671.0
16	14	56	1	8	66.0	97578.0	3934.0	-5689842.0
16	14	56	1	9	67.0	100223.0	4069.0	-5689511.0
16	14	56	1	11	68.0	88626.0	4174.0	-5690725.0
16	14	56	1	12	69.0	69384.0	4568.0	-5690686.0
16	14	56	1	13	71.0	10630.0	4021.0	-5689411.0
16	14	56	1	14	72.0	-25218.0	3237.0	-5690722.0
16	14	56	1	15	73.0	-69823.0	3200.0	-5690839.0
16	14	56	1	16	74.0	-117246.0	3255.0	-5690012.0
16	14	56	1	17	75.0	-141461.0	3422.0	-5689959.0
16	14	56	1	18	76.0	-129818.0	3360.0	-5691142.0
16	14	56	1	19	77.0	-75370.0	3591.0	-5690817.0
16	14	56	1	20	78.0	13758.0	4142.0	-5689991.0
16	14	56	1	21	79.0	112751.0	5276.0	-5689499.0
16	14	56	1	23	80.0	197179.0	5207.0	-5690576.0
16	14	56	1	24	81.0	257799.0	5258.0	-5690719.0
16	14	56	1	25	82.0	306491.0	5071.0	-5689940.0
16	14	56	1	26	83.0	356510.0	5151.0	-5689330.0
16	14	56	1	26	84.0	408920.0	4731.0	-5690521.0
16	14	56	1	27	85.0	471752.0	5009.0	-5690835.0
16	14	56	1	29	86.0	545971.0	4829.0	-5690066.0
16	14	56	1	29	87.0	627566.0	5113.0	-5689465.0
16	14	56	1	30	88.0	701579.0	4930.0	-5690519.0
16	14	56	1	30	89.0	755896.0	4723.0	-5690896.0
16	14	56	1	30	90.0	799869.0	4331.0	-5690211.0
16	14	56	1	31	91.0	870658.0	4391.0	-5689550.0
16	14	56	1	31	93.0	1159530.0	4684.0	-5690939.0
16	14	56	1	32	94.0	1201743.0	3834.0	-5690249.0
16	14	56	1	32	95.0	824515.0	3372.0	-5689747.0
16	14	56	1	33	96.0	114118.0	3549.0	-5691007.0
16	14	56	1	33	97.0	-857561.0	3104.0	-5690874.0
16	14	56	1	34	98.0	-1823373.0	3412.0	-5690024.0
16	14	56	1	46	99.0	-2471874.0	4061.0	-5689150.0
16	14	56	1	46	100.0	-2521767.0	4722.0	-5690116.0
16	14	56	1	46	101.0	-1827547.0	6236.0	-5690906.0
16	14	56	1	47	102.0	-623984.0	6241.0	-5690373.0
16	14	56	1	47	103.0	496698.0	5774.0	-5689731.0
16	14	56	1	47	104.0	1121709.0	5706.0	-5690616.0
16	14	56	1	97	105.0	1462630.0	5721.0	-5691254.0
16	14	56	1	97	106.0	1761401.0	5502.0	-5690630.0
16	14	56	1	98	107.0	1785353.0	6160.0	-5690088.0
16	14	56	1	98	108.0	1343432.0	6576.0	-5691501.0
16	14	56	1	99	109.0	569729.0	6521.0	-5691659.0
16	14	56	1	99	110.0	-318864.0	6096.0	-5690856.0
16	14	56	1	99	111.0	-1064690.0	5921.0	-5690014.0
16	14	56	1	100	112.0	-1493009.0	6239.0	-5690679.0
16	14	56	1	100	113.0	-1632541.0	6499.0	-5691171.0
16	14	56	1	100	116.0	-659843.0	6408.0	-5690341.0
16	14	56	1	101	117.0	-144098.0	5570.0	-5690630.0
16	14	56	1	101	118.0	148588.0	5476.0	-5689968.0
16	14	56	1	101	119.0	415898.0	5856.0	-5689762.0
16	14	56	1	102	120.0	595427.0	6316.0	-5691212.0
16	14	56	1	102	121.0	701439.0	6335.0	-5690886.0
16	14	56	1	102	122.0	688536.0	5806.0	-5690152.0
16	14	56	1	103	123.0	564507.0	6512.0	-5690256.0
16	14	56	1	103	124.0	313421.0	7914.0	-5691426.0
16	14	56	1	103	125.0	-18464.0	7847.0	-5690792.0
16	14	56	1	104	126.0	-240501.0	7320.0	-5690067.0
16	14	56	1	104	127.0	-250354.0	6966.0	-5690546.0
16	14	56	1	104	128.0	-115175.0	7521.0	-5691412.0
16	14	56	1	104	129.0	55772.0	7471.0	-5690742.0
16	14	56	1	105	130.0	202428.0	7346.0	-5690027.0
16	14	56	1	105	131.0	319602.0	7155.0	-5689956.0
16	14	56	1	105	132.0	387086.0	6739.0	-5691371.0
16	14	56	1	105	133.0	383034.0	6799.0	-5691027.0
16	14	56	1	148	134.0	332418.0	7186.0	-5690262.0
16	14	56	1	148	135.0	276185.0	7627.0	-5690362.0
16	14	56	1	149	136.0	232708.0	7249.0	-5691378.0
16	14	56	1	149	138.0	180719.0	7692.0	-5690066.0
16	14	56	1	149	139.0	142731.0	7008.0	-5690519.0
16	14	56	1	150	140.0	130520.0	6626.0	-5691567.0
16	14	56	1	150	141.0	139306.0	6784.0	-5690970.0
16	14	56	1	150	142.0	137597.0	7018.0	-5690186.0
16	14	56	1	151	143.0	110844.0	7040.0	-5690614.0
16	14	56	1	151	144.0	70052.0	6821.0	-5691865.0
16	14	56	1	151	145.0	38304.0	7013.0	-5691351.0
16	14	56	1	151	146.0	21162.0	8106.0	-5690525.0
16	14	56	1	152	147.0	12413.0	8666.0	-5690349.0
16	14	56	1	152	148.0	16883.0	8349.0	-5691596.0
16	14	56	1	152	149.0	41919.0	8266.0	-5691342.0
16	14	56	1	152	150.0	76172.0	8456.0	-5690533.0
16	14	56	1	153	151.0	101412.0	8574.0	-5690221.0
16	14	56	1	153	152.0	119904.0	8870.0	-5691411.0
16	14	56	1	153	153.0	131606.0	9066.0	-5691391.0
16	14	56	1	154	154.0	147676.0	9440.0	-5690566.0
16	14	56	1	154	155.0	178266.0	9791.0	-5690697.0
16	14	56	1	154	156.0	224706.0	9615.0	-5692000.0
16	14	56	1	155	157.0	278621.0	9519.0	-5691608.0
16	14	56	1	155	158.0	314149.0	9660.0	-5690765.0
16	14	56	1	155	160.0	322715.0	9373.0	-5691894.0
16	14	56	1	155	161.0	322172.0	9380.0	-5691662.0
16	14	56	1	156	162.0	305280.0	8394.0	-5690804.0
16	14	56	1	156	163.0	257340.0	7988.0	-5690506.0
16	14	56	1	156	164.0	193589.0	7671.0	-5691702.0
16	14	56	1	156	165.0	149473.0	7561.0	-5691515.0
16	14	56	1	157	166.0	140126.0	8108.0	-5690717.0
16	14	56	1	200	167.0	137966.0	8528.0	-5690424.0
16	14	56	1	201	168.0	115314.0	8796.0	-5691697.0
16	14	56	1	201	169.0	77186.0	9678.0	-5691478.0
16	14	56	1	254	170.0	38359.0	9734.0	-5690673.0
16	14	56	1	255	171.0	8898.0	10317.0	-5690404.0
16	14	56	1	255	172.0	-18532.0	10517.0	-5691676.0
16	14	56	1	255	173.0	-45386.0	11255.0	-5691496.0
16	14	56	1	256	174.0	-52411.0	11189.0	-5690704.0
16	14	56	1	256	175.0	-33779.0	10922.0	-5690569.0
16	14	56	1	256	176.0	-9265.0	11373.0	-5692061.0
16	14	56	1	257	177.0	16884.0	11394.0	-5691787.0
16	14	56	1	257	178.0	47428.0	11413.0	-5691001.0
16	14	56	1	257	179.0	102863.0	11942.0	-5690376.0
16	14	56	1	258	180.0	182876.0	12593.0	-5691418.0
16	14	56	1	258	181.0	256561.0	13229.0	-5691431.0
16	14	56	1	258	183.0	291519.0	14701.0	-5690109.0
16	14	56	1	259	184.0	272789.0	14941.0	-5691393.0
16	14	56	1	259	185.0	242634.0	15737.0	-5691533.0
16	14	56	1	259	205.0	103486.0	57282.0	-5690879.0
16	14	56	1	260	206.0	100094.0	58417.0	-5690305.0
16	14	56	1	260	207.0	120321.0	58420.0	-5691224.0
16	14	56	1	260	208.0	153566.0	59716.0	-5691647.0
16	14	56	1	261	209.0	188764.0	61178.0	-5690813.0
16	14	56	1	261	210.0	229676.0	61973.0	-5690156.0
16	14	56	1	261	211.0	269593.0	62308.0	-5690701.0
16	14	56	1	311	212.0	301938.0	62520.0	-5691462.0
16	14	56	1	311	213.0	331856.0	62950.0	-5690731.0
16	14	56	1	312	214.0	353171.0	64249.0	-5690066.0
16	14	56	1	312	215.0	361852.0	63945.0	-5690831.0
16	14	56	1	313	216.0	355936.0	63083.0	-5691527.0
16	14	56	1	313	217.0	335101.0	62844.0	-5690791.0
16	14	56	1	313	218.0	301117.0	62949.0	-5690137.0
16	14	56	1	314	219.0	253419.0	62928.0	-5691079.0
16	14	56	1	314	220.0	203051.0	62204.0	-5691684.0
16	14	56	1	315	221.0	156123.0	61634.0	-5690908.0
16	14	56	1	315	222.0	111675.0	61204.0	-5690285.0
16	14	56	1	315	223.0	81598.0	59996.0	-5691181.0
16	14	56	1	316	224.0	49378.0	58530.0	-5691721.0
16	14	56	1	316	225.0	16811.0	57381.0	-5690936.0
16	14	56	1	316	226.0	-15309.0	56376.0	-5690182.0
16	14	56	1	316	228.0	-375132.0	53148.0	-5691720.0
16	14	56	1	317	229.0	-744539.0	50629.0	-5691091.0
16	14	56	1	317	230.0	-1006995.0	48782.0	-5690301.0
16	14	56	1	318	231.0	-1027334.0	47630.0	-5690684.0
16	14	56	1	318	232.0	-605690.0	45423.0	-5691916.0
16	14	56	1	318	233.0	238405.0	43844.0	-5691474.0
16	14	56	1	319	234.0	1085234.0	41524.0	-5690773.0
16	14	56	1	368	235.0	1479668.0	39841.0	-5691316.0
16	14	56	1	368	236.0	1239234.0	39218.0	-5692371.0
16	14	56	1	369	237.0	606952.0	37467.0	-5691716.0
16	14	56	1	369	238.0	-8584.0	34938.0	-5690858.0
16	14	56	1	369	239.0	-389949.0	32562.0	-5691042.0
16	14	56	1	370	240.0	-540882.0	30589.0	-5692201.0
16	14	56	1	370	241.0	-530826.0	28168.0	-5691701.0
16	14	56	1	370	242.0	-425419.0	26914.0	-5690883.0
16	14	56	1	371	243.0	-283991.0	24676.0	-5690890.0
16	14	56	1	371	244.0	-170412.0	22049.0	-5692222.0
16	14	56	1	371	245.0	-121903.0	19393.0	-5691902.0
16	14	56	1	372	246.0	-130146.0	17179.0	-5691072.0
16	14	56	1	372	247.0	-177251.0	14636.0	-5690931.0
16	14	56	1	372	248.0	-235716.0	12501.0	-5692136.0
16	14	56	1	372	250.0	-259301.0	8579.0	-5691022.0
16	14	56	1	373	251.0	-217622.0	6333.0	-5691303.0
16	14	56	1	373	252.0	-160447.0	3233.0	-5692230.0
16	14	56	1	373	253.0	-91009.0	1307.0	-5691693.0
16	14	56	1	374	254.0	-43192.0	-379.0	-5690911.0
16	14	56	1	374	255.0	-8066.0	-2449.0	-5691611.0
16	14	56	1	374	0.0	40700.0	-3959.0	-5692326.0
16	14	56	1	375	1.0	68263.0	-5579.0	-5691655.0
16	14	56	1	375	2.0	59951.0	-6734.0	-5690822.0
16	14	56	1	375	3.0	38439.0	-6782.0	-5690839.0
16	14	56	1	375	4.0	8953.0	-8617.0	-5692024.0
16	14	56	1	376	5.0	-20922.0	-10907.0	-5691568.0
16	14	56	1	376	6.0	-31840.0	-12382.0	-5690818.0
16	14	56	1	376	7.0	-17731.0	-14198.0	-5690731.0
16	14	56	1	376	8.0	22256.0	-15707.0	-5692019.0
16	14	56	1	377	9.0	76099.0	-17362.0	-5691647.0
16	14	56	1	377	10.0	132390.0	-18830.0	-5690911.0
16	14	56	1	377	11.0	181169.0	-19836.0	-5691353.0
16	14	56	1	378	12.0	223381.0	-20974.0	-5691906.0
16	14	56	1	378	13.0	257706.0	-22181.0	-5691233.0
16	14	56	1	378	14.0	268658.0	-22756.0	-5690505.0
16	14	56	1	430	15.0	262339.0	-23885.0	-5691136.0
16	14	56	1	430	17.0	245079.0	-25657.0	-5690808.0
16	14	56	1	430	18.0	256564.0	-28149.0	-5691501.0
16	14	56	1	431	19.0	270659.0	-29456.0	-5692402.0
16	14	56	1	431	20.0	275229.0	-30507.0	-5691677.0
16	14	56	1	431	21.0	280723.0	-31404.0	-5690940.0
16	14	56	1	432	22.0	299538.0	-32186.0	-5691119.0
16	14	56	1	432	23.0	328652.0	-32938.0	-5692404.0
16	14	56	1	432	24.0	349359.0	-33694.0	-5691865.0
16	14	56	1	433	25.0	344668.0	-33430.0	-5691121.0
16	14	56	1	433	26.0	320782.0	-33616.0	-5691110.0
16	14	56	1	433	27.0	287265.0	-34698.0	-5692291.0
16	14	56	1	433	28.0	263218.0	-35080.0	-5691778.0
16	14	56	1	434	29.0	255868.0	-35651.0	-5691094.0
16	14	56	1	434	30.0	266462.0	-35732.0	-5691682.0
16	14	56	1	434	31.0	268473.0	-35679.0	-5692417.0
16	14	56	1	435	32.0	252611.0	-35811.0	-5691702.0
16	14	56	1	435	33.0	219071.0	-35824.0	-5690961.0
16	14	56	1	435	34.0	174037.0	-35991.0	-5691063.0
16	14	56	1	435	35.0	123824.0	-36397.0	-5692096.0
16	14	56	1	436	36.0	73699.0	-36725.0	-5691581.0
16	14	56	1	436	37.0	26516.0	-36507.0	-5690779.0
16	14	56	1	436	39.0	-50876.0	-36874.0	-5691747.0
16	14	56	1	437	40.0	-57606.0	-37429.0	-5691159.0
16	14	56	1	437	41.0	-45295.0	-38211.0	-5690349.0
16	14	56	1	437	42.0	-20624.0	-38212.0	-5690525.0
16	14	56	1	437	43.0	7414.0	-37809.0	-5691577.0
16	14	56	1	438	44.0	36691.0	-37539.0	-5691089.0
16	14	56	1	438	45.0	64748.0	-37147.0	-5690349.0
16	14	56	1	492	46.0	84558.0	-36834.0	-5691078.0
16	14	56	1	492	47.0	97720.0	-36120.0	-5691579.0
16	14	56	1	493	48.0	114124.0	-35416.0	-5690897.0
16	14	56	1	493	49.0	132699.0	-35171.0	-5690119.0
16	14	56	1	493	50.0	150351.0	-35020.0	-5690806.0
16	14	56	1	494	51.0	159750.0	-34017.0	-5691447.0
16	14	56	1	494	52.0	159088.0	-33547.0	-5690783.0
16	14	56	1	494	53.0	157758.0	-33344.0	-5689939.0
16	14	56	1	495	54.0	155171.0	-32884.0	-5690221.0
16	14	56	1	495	55.0	143862.0	-32119.0	-5691459.0
16	14	56	1	495	56.0	117513.0	-31859.0	-5690979.0
16	14	56	1	496	57.0	82141.0	-31494.0	-5690182.0
16	14	56	1	496	58.0	52016.0	-30888.0	-5690326.0
16	14	56	1	496	59.0	15949.0	-30315.0	-5691420.0
16	14	56	1	497	60.0	-18836.0	-29486.0	-5690958.0
16	14	56	1	497	62.0	-33226.0	-27527.0	-5690659.0
16	14	56	1	497	63.0	-10267.0	-27592.0	-5691726.0
16	14	56	1	497	64.0	31626.0	-26996.0	-5691160.0
16	14	56	1	498	65.0	73254.0	-25903.0	-5690361.0
16	14	56	1	498	66.0	94895.0	-25074.0	-5690721.0
16	14	56	1	498	67.0	101059.0	-24247.0	-5691902.0
16	14	56	1	499	68.0	101160.0	-23919.0	-5691318.0
16	14	56	1	499	69.0	98809.0	-23300.0	-5690527.0
16	14	56	1	499	70.0	94590.0	-21809.0	-5690434.0
16	14	56	1	500	71.0	82286.0	-21281.0	-5691842.0
16	14	56	1	500	72.0	61309.0	-20150.0	-5691461.0
16	14	56	1	500	73.0	36511.0	-18671.0	-5690702.0
16	14	56	1	553	74.0	12491.0	-18246.0	-5690294.0
16	14	56	1	554	75.0	-3329.0	-17626.0	-5691729.0
16	14	56	1	554	76.0	-7488.0	-17236.0	-5691698.0
16	14	56	1	555	77.0	-8681.0	-16217.0	-5690927.0
16	14	56	1	555	78.0	-5672.0	-15483.0	-5690954.0
16	14	56	1	555	79.0	4313.0	-15120.0	-5692295.0
16	14	56	1	555	80.0	12724.0	-13797.0	-5691817.0
16	14	56	1	556	81.0	19803.0	-13432.0	-5691065.0
16	14	56	1	556	82.0	26798.0	-12522.0	-5691006.0
16	14	56	1	556	84.0	21394.0	-9761.0	-5691270.0
16	14	56	1	557	85.0	20998.0	-9866.0	-5690594.0
16	14	56	1	557	86.0	25278.0	-10198.0	-5691330.0
16	14	56	1	557	87.0	25403.0	-9552.0	-5692016.0
16	14	56	1	557	88.0	16635.0	-9255.0	-5691239.0
16	14	56	1	558	89.0	4662.0	-8506.0	-5690632.0
16	14	56	1	558	90.0	-14256.0	-6982.0	-5691454.0
16	14	56	1	558	91.0	-24491.0	-6098.0	-5691801.0
16	14	56	1	559	92.0	-14410.0	-4996.0	-5690991.0
16	14	56	1	559	93.0	994.0	-3467.0	-5690442.0
16	14	56	1	559	94.0	9808.0	-3024.0	-5691487.0
16	14	56	1	560	95.0	16515.0	-3183.0	-5691802.0
16	14	56	1	560	96.0	30712.0	-3033.0	-5690975.0
16	14	56	1	560	97.0	45624.0	-2285.0	-5690508.0
16	14	56	1	560	98.0	54828.0	-1402.0	-5691657.0
16	14	56	1	561	99.0	49863.0	-651.0	-5691864.0
16	14	56	1	561	100.0	39179.0	209.0	-5691014.0
16	14	56	1	561	101.0	32066.0	583.0	-5690395.0
16	14	56	1	562	102.0	32048.0	683.0	-5691152.0
16	14	56	1	562	103.0	31814.0	647.0	-5691896.0
16	14	56	1	562	104.0	37628.0	1680.0	-5691131.0
16	14	56	1	563	105.0	38120.0	1884.0	-5690519.0
16	14	56	1	563	107.0	45920.0	2075.0	-5692182.0
16	14	56	1	563	108.0	54103.0	1033.0	-5691432.0
16	14	56	1	563	109.0	62988.0	785.0	-5690914.0
16	14	56	1	564	110.0	74908.0	835.0	-5692012.0
16	14	56	1	564	111.0	99143.0	1425.0	-5692333.0
16	14	56	1	564	112.0	128483.0	1894.0	-5691556.0
16	14	56	1	618	113.0	148663.0	2559.0	-5690998.0
16	14	56	1	618	114.0	151088.0	2748.0	-5692208.0
16	14	56	1	619	115.0	138601.0	3466.0	-5692514.0
16	14	56	1	619	116.0	127331.0	3829.0	-5691730.0
16	14	56	1	619	117.0	117644.0	3317.0	-5691007.0
16	14	56	1	620	118.0	117941.0	3629.0	-5691821.0
16	14	56	1	620	119.0	117421.0	3878.0	-5692449.0
16	14	56	1	620	120.0	107359.0	3728.0	-5691748.0
16	14	56	1	620	121.0	89957.0	3644.0	-5690939.0
16	14	56	1	621	122.0	76626.0	3294.0	-5691365.0
16	14	56	1	682	123.0	70264.0	3234.0	-5692287.0
16	14	56	1	683	124.0	67160.0	3641.0	-5691660.0
16	14	56	1	683	125.0	61308.0	3709.0	-5690910.0
16	14	56	1	684	126.0	49775.0	3358.0	-5691577.0
16	14	56	1	684	127.0	28157.0	3143.0	-5692046.0
16	14	56	1	684	129.0	25829.0	3376.0	-5690644.0
16	14	56	1	685	130.0	51537.0	2764.0	-5691519.0
16	14	56	1	685	131.0	76826.0	2037.0	-5691906.0
16	14	56	1	686	132.0	95513.0	2361.0	-5691228.0
16	14	56	1	686	133.0	109829.0	3017.0	-5690452.0
16	14	56	1	686	134.0	123667.0	3443.0	-5691120.0
16	14	56	1	687	135.0	133733.0	3812.0	-5691744.0
16	14	56	1	687	136.0	119099.0	4131.0	-5691092.0
16	14	56	1	687	137.0	86341.0	3580.0	-5690377.0
16	14	56	1	687	138.0	75984.0	2863.0	-5691573.0
16	14	56	1	688	152.0	47080.0	3008.0	-5690572.0
16	14	56	1	688	153.0	34645.0	2406.0	-5690507.0
16	14	56	1	688	154.0	14884.0	2181.0	-5691697.0
16	14	56	1	689	155.0	7386.0	2290.0	-5691199.0
16	14	56	1	689	156.0	12956.0	2063.0	-5690485.0
16	14	56	1	690	157.0	17026.0	1871.0	-5690869.0
16	14	56	1	690	158.0	13323.0	1973.0	-5691918.0
16	14	56	1	690	159.0	-3545.0	2268.0	-5691284.0
16	14	56	1	690	160.0	-37721.0	3561.0	-5690536.0
16	14	56	1	691	161.0	-83900.0	3524.0	-5690879.0
16	14	56	1	691	162.0	-122845.0	3696.0	-5691803.0
16	14	56	1	691	163.0	-141804.0	3922.0	-5691117.0
16	14	56	1	692	164.0	-127772.0	3585.0	-5690311.0
16	14	56	1	692	165.0	-81254.0	3614.0	-5690319.0
16	14	56	1	692	166.0	-10985.0	3714.0	-5691736.0
16	14	56	1	693	167.0	62936.0	3680.0	-5691393.0
16	14	56	1	693	168.0	126089.0	3202.0	-5690552.0
16	14	56	1	693	169.0	168696.0	3540.0	-5690682.0
16	14	56	1	694	170.0	201756.0	3384.0	-5691727.0
16	14	56	1	694	171.0	237539.0	3386.0	-5691221.0
16	14	56	1	752	172.0	295727.0	3706.0	-5690406.0
16	14	56	1	753	174.0	449569.0	3901.0	-5691799.0
16	14	56	1	753	175.0	520303.0	3699.0	-5691237.0
16	14	56	1	753	176.0	599103.0	3373.0	-5690429.0
16	14	56	1	754	177.0	693604.0	3555.0	-5690933.0
16	14	56	1	754	178.0	805051.0	3553.0	-5691921.0
16	14	56	1	754	179.0	967653.0	3845.0	-5691339.0
16	14	56	1	754	180.0	1170720.0	3814.0	-5690489.0
16	14	56	1	755	181.0	1316979.0	3983.0	-5690659.0
16	14	56	1	755	182.0	1120016.0	5227.0	-5691692.0
16	14	56	1	755	183.0	488960.0	6219.0	-5691141.0
16	14	56	1	755	184.0	-331907.0	6369.0	-5690228.0
16	14	56	1	756	185.0	-1275016.0	6764.0	-5690216.0
16	14	56	1	756	186.0	-2082659.0	6777.0	-5690993.0
16	14	56	1	756	187.0	-2479690.0	6254.0	-5690457.0
16	14	56	1	757	188.0	-2211750.0	6349.0	-5689716.0
16	14	56	1	757	189.0	-1295160.0	6419.0	-5690501.0
16	14	56	1	757	190.0	-141111.0	6397.0	-5691352.0
16	14	56	1	757	191.0	666591.0	6749.0	-5690766.0
16	14	56	1	758	192.0	990147.0	6765.0	-5690010.0
16	14	56	1	758	193.0	1213410.0	7091.0	-5690613.0
16	14	56	1	758	194.0	1458570.0	7395.0	-5691309.0
16	14	56	1	759	196.0	974718.0	7419.0	-5689809.0
16	14	56	1	759	197.0	180580.0	7173.0	-5689956.0
16	14	56	1	759	198.0	-669476.0	6023.0	-5690396.0
16	14	56	1	759	199.0	-1354391.0	5758.0	-5689661.0
16	14	56	1	760	200.0	-1743546.0	5551.0	-5689667.0
16	14	56	1	760	201.0	-1843886.0	5743.0	-5690701.0
16	14	56	1	760	202.0	-1673139.0	6044.0	-5690164.0
16	14	56	1	823	203.0	-1164001.0	6109.0	-5689472.0
16	14	56	1	824	204.0	-528944.0	6396.0	-5689885.0
16	14	56	1	824	205.0	-139125.0	7311.0	-5691195.0
16	14	56	1	824	206.0	110844.0	7136.0	-5690654.0
16	14	56	1	825	207.0	393828.0	6691.0	-5689904.0
16	14	56	1	825	208.0	610317.0	7286.0	-5690209.0
16	14	56	1	825	209.0	686137.0	7686.0	-5691346.0
16	14	56	1	825	210.0	609078.0	7969.0	-5690762.0
16	14	56	1	826	211.0	384748.0	8375.0	-5689902.0
16	14	56	1	826	212.0	21316.0	8084.0	-5689671.0
16	14	56	1	826	213.0	-271666.0	8258.0	-5690789.0
16	14	56	1	826	214.0	-340836.0	8169.0	-5690506.0
16	14	56	1	827	215.0	-250031.0	8423.0	-5689686.0
16	14	56	1	827	216.0	-76610.0	8678.0	-5689577.0
16	14	56	1	827	217.0	128905.0	8645.0	-5691041.0
16	14	56	1	827	219.0	435854.0	8452.0	-5690052.0
16	14	56	1	828	220.0	476758.0	7254.0	-5690023.0
16	14	56	1	828	221.0	434863.0	6864.0	-5691306.0
16	14	56	1	828	222.0	361396.0	7029.0	-5690967.0
16	14	56	1	829	223.0	298688.0	7361.0	-5690112.0
16	14	56	1	829	224.0	273261.0	7521.0	-5689950.0
16	14	56	1	829	225.0	264245.0	7593.0	-5691099.0
16	14	56	1	829	226.0	246616.0	8013.0	-5690832.0
16	14	56	1	830	227.0	230083.0	8913.0	-5689959.0
16	14	56	1	830	228.0	210421.0	9555.0	-5689664.0
16	14	56	1	830	229.0	174443.0	9316.0	-5690776.0
16	14	56	1	830	230.0	144288.0	9233.0	-5690568.0
16	14	56	1	831	231.0	124745.0	9313.0	-5689727.0
16	14	56	1	831	232.0	101411.0	9292.0	-5689282.0
16	14	56	1	831	233.0	79628.0	9625.0	-5690477.0
16	14	56	1	831	234.0	49477.0	9156.0	-5690513.0
16	14	56	1	831	235.0	26816.0	8953.0	-5689739.0
16	14	56	1	832	236.0	25033.0	8861.0	-5689739.0
16	14	56	1	832	237.0	30661.0	8793.0	-5691086.0
16	14	56	1	832	238.0	38823.0	8699.0	-5690760.0
16	14	56	1	832	239.0	40749.0	8501.0	-5689947.0
16	14	56	1	833	241.0	47728.0	8939.0	-5691019.0
16	14	56	1	833	242.0	73591.0	8349.0	-5690708.0
16	14	56	1	833	243.0	89052.0	7551.0	-5689886.0
16	14	56	1	833	244.0	105000.0	7344.0	-5689573.0
16	14	56	1	833	245.0	141264.0	8084.0	-5690846.0
16	14	56	1	834	246.0	177874.0	7958.0	-5690588.0
16	14	56	1	834	247.0	198815.0	8118.0	-5689834.0
16	14	56	1	899	248.0	221579.0	8661.0	-5689914.0
16	14	56	1	899	249.0	263713.0	8474.0	-5691057.0
16	14	56	1	900	250.0	296571.0	9486.0	-5690489.0
16	14	56	1	900	251.0	307531.0	10201.0	-5689746.0
16	14	56	1	900	252.0	295911.0	10172.0	-5689623.0
16	14	56	1	901	253.0	263171.0	9826.0	-5690919.0
16	14	56	1	901	254.0	202664.0	9663.0	-5690487.0
16	14	56	1	901	255.0	125736.0	9555.0	-5689724.0
16	14	56	1	902	0.0	58366.0	9450.0	-5689462.0
16	14	56	1	902	1.0	5036.0	9511.0	-5690198.0
16	14	56	1	902	2.0	-44541.0	9688.0	-5689658.0
16	14	56	1	903	3.0	-100040.0	9683.0	-5689134.0
16	14	56	1	903	4.0	-138654.0	9666.0	-5690266.0
16	14	56	1	903	5.0	-145541.0	10090.0	-5690450.0
16	14	56	1	904	6.0	-121654.0	10388.0	-5689629.0
16	14	56	1	904	8.0	-4059.0	11036.0	-5689961.0
16	14	56	1	904	9.0	47283.0	10714.0	-5690386.0
16	14	56	1	904	10.0	97586.0	10459.0	-5689576.0
16	14	56	1	905	11.0	142761.0	11142.0	-5689305.0
16	14	56	1	905	12.0	174871.0	11649.0	-5690521.0
16	14	56	1	905	13.0	192300.0	12262.0	-5690335.0
16	14	56	1	906	14.0	203255.0	12693.0	-5689520.0
16	14	56	1	906	15.0	214249.0	14033.0	-5689184.0
16	14	56	1	906	16.0	232618.0	16158.0	-5690397.0
16	14	56	1	906	17.0	253581.0	17534.0	-5690346.0
16	14	56	1	907	18.0	254136.0	19170.0	-5689491.0
16	14	56	1	907	19.0	227589.0	20621.0	-5688899.0
16	14	56	1	907	20.0	183035.0	21561.0	-5689974.0
16	14	56	1	908	21.0	123299.0	22633.0	-5690524.0
16	14	56	1	908	22.0	49904.0	23924.0	-5689702.0
16	14	56	1	908	23.0	-26189.0	25668.0	-5689117.0
16	14	56	1	909	24.0	-88537.0	27984.0	-5690013.0
16	14	56	1	909	25.0	-143897.0	30723.0	-5690412.0
16	14	56	1	976	26.0	-182681.0	33115.0	-5689593.0
16	14	56	1	976	27.0	-187716.0	36200.0	-5689042.0
16	14	56	1	977	28.0	-162606.0	38793.0	-5689969.0
16	14	56	1	977	30.0	-83464.0	42876.0	-5689409.0
16	14	56	1	977	31.0	-38378.0	44844.0	-5689083.0
16	14	56	1	978	32.0	21301.0	46159.0	-5690337.0
16	14	56	1	978	33.0	103050.0	48424.0	-5690276.0
16	14	56	1	978	34.0	193309.0	50339.0	-5689470.0
16	14	56	1	979	35.0	291405.0	52243.0	-5688772.0
16	14	56	1	979	36.0	393967.0	54006.0	-5689544.0
16	14	56	1	979	37.0	480498.0	55203.0	-5690449.0
16	14	56	1	980	38.0	526146.0	56855.0	-5689789.0
16	14	56	1	980	39.0	526624.0	59223.0	-5689041.0
16	14	56	1	980	40.0	497425.0	60271.0	-5689638.0
16	14	56	1	980	41.0	453228.0	60371.0	-5690563.0
16	14	56	1	981	42.0	407696.0	61510.0	-5689924.0
16	14	56	1	981	43.0	351102.0	62554.0	-5689217.0
16	14	56	1	981	44.0	286946.0	62711.0	-5690017.0
16	14	56	1	981	45.0	221716.0	63159.0	-5690644.0
16	14	56	1	982	46.0	163476.0	62633.0	-5689932.0
16	14	56	1	982	47.0	117204.0	62963.0	-5689166.0
16	14	56	1	982	48.0	78751.0	62562.0	-5689919.0
16	14	56	1	982	49.0	48897.0	62033.0	-5690722.0
16	14	56	1	983	50.0	23166.0	61327.0	-5690071.0
16	14	56	1	983	51.0	-3445.0	60834.0	-5689219.0
16	14	56	1	983	53.0	-65387.0	59945.0	-5690887.0
16	14	56	1	983	54.0	-83455.0	57963.0	-5690312.0
16	14	56	1	984	55.0	-96790.0	56615.0	-5689483.0
16	14	56	1	984	56.0	-111221.0	55164.0	-5689634.0
16	14	56	1	984	57.0	-146059.0	54009.0	-5690579.0
16	14	56	1	985	58.0	-291936.0	52969.0	-5690091.0
16	14	56	2	63	59.0	-600299.0	51516.0	-5689299.0
16	14	56	2	64	60.0	-980349.0	49826.0	-5689801.0
16	14	56	2	64	61.0	-1176464.0	49465.0	-5690764.0
16	14	56	2	64	62.0	-934854.0	47758.0	-5690219.0
16	14	56	2	65	63.0	-215131.0	45865.0	-5689444.0
16	14	56	2	65	64.0	697188.0	43961.0	-5689725.0
16	14	56	2	65	65.0	1292378.0	41678.0	-5690903.0
16	14	56	2	65	66.0	1320823.0	39472.0	-5690410.0
16	14	56	2	66	67.0	845286.0	37749.0	-5689569.0
16	14	56	2	66	68.0	267451.0	35731.0	-5689272.0
16	14	56	2	66	69.0	-124008.0	33454.0	-5690442.0
16	14	56	2	66	70.0	-318338.0	31101.0	-5690089.0
16	14	56	2	67	71.0	-355874.0	28481.0	-5689324.0
16	14	56	2	67	72.0	-291800.0	26533.0	-5689489.0
16	14	56	2	67	73.0	-181031.0	24878.0	-5690501.0
16	14	56	2	68	75.0	37030.0	20862.0	-5689179.0
16	14	56	2	68	76.0	107356.0	18785.0	-5689304.0
16	14	56	2	68	77.0	114975.0	15937.0	-5690239.0
16	14	56	2	69	78.0	65907.0	14039.0	-5689669.0
16	14	56	2	69	79.0	16487.0	11838.0	-5689347.0
16	14	56	2	69	80.0	-710.0	9712.0	-5690547.0
16	14	56	2	70	81.0	-8899.0	8083.0	-5690292.0
16	14	56	2	70	82.0	-4435.0	7336.0	-5689501.0
16	14	56	2	70	83.0	24699.0	5801.0	-5689009.0
16	14	56	2	71	84.0	88254.0	3615.0	-5689981.0
16	14	56	2	71	85.0	148761.0	1919.0	-5690109.0
16	14	56	2	71	86.0	184771.0	107.0	-5689323.0
16	14	56	2	72	87.0	173949.0	-1834.0	-5688867.0
16	14	56	2	72	88.0	102927.0	-3569.0	-5690066.0
16	14	56	2	72	89.0	6939.0	-5097.0	-5690312.0
16	14	56	2	73	90.0	-89349.0	-6907.0	-5689456.0
16	14	56	2	73	91.0	-159784.0	-8682.0	-5689138.0
16	14	56	2	73	98.0	80938.0	-18612.0	-5689542.0
16	14	56	2	74	99.0	136762.0	-21188.0	-5688866.0
16	14	56	2	74	100.0	168651.0	-22547.0	-5689568.0
16	14	56	2	75	101.0	178397.0	-23374.0	-5690224.0
16	14	56	2	75	102.0	168364.0	-24562.0	-5689482.0
16	14	56	2	75	103.0	150893.0	-25599.0	-5688841.0
16	14	56	2	139	104.0	147673.0	-26032.0	-5689636.0
16	14	56	2	139	105.0	160373.0	-26256.0	-5690128.0
16	14	56	2	139	106.0	178363.0	-26339.0	-5689394.0
16	14	56	2	140	107.0	202606.0	-27233.0	-5688831.0
16	14	56	2	140	108.0	228240.0	-27956.0	-5689804.0
16	14	56	2	141	109.0	247899.0	-28906.0	-5690202.0
16	14	56	2	141	110.0	286413.0	-29763.0	-5689459.0
16	14	56	2	141	111.0	357356.0	-30580.0	-5688895.0
16	14	56	2	142	112.0	431101.0	-31287.0	-5689973.0
16	14	56	2	142	113.0	478437.0	-31924.0	-5690222.0
16	14	56	2	142	114.0	475897.0	-32372.0	-5689479.0
16	14	56	2	143	115.0	432627.0	-32404.0	-5688699.0
16	14	56	2	143	116.0	359949.0	-32861.0	-5689321.0
16	14	56	2	143	117.0	273350.0	-33456.0	-5689972.0
16	14	56	2	143	118.0	178984.0	-33722.0	-5689284.0
16	14	56	2	144	120.0	53251.0	-34477.0	-5689616.0
16	14	56	2	144	121.0	28426.0	-35252.0	-5690196.0
16	14	56	2	144	122.0	3687.0	-36274.0	-5689500.0
16	14	56	2	144	123.0	-29817.0	-36259.0	-5688909.0
16	14	56	2	145	124.0	-66264.0	-36616.0	-5690021.0
16	14	56	2	145	125.0	-104934.0	-36452.0	-5690050.0
16	14	56	2	145	126.0	-135107.0	-36066.0	-5689320.0
16	14	56	2	145	127.0	-160076.0	-36040.0	-5688568.0
16	14	56	2	146	128.0	-178519.0	-35119.0	-5689555.0
16	14	56	2	146	129.0	-172723.0	-34509.0	-5690048.0
16	14	56	2	146	130.0	-128619.0	-34941.0	-5689369.0
16	14	56	2	146	131.0	-65337.0	-34664.0	-5688726.0
16	14	56	2	146	132.0	-6491.0	-34297.0	-5689596.0
16	14	56	2	147	133.0	33226.0	-34113.0	-5689557.0
16	14	56	2	147	134.0	59486.0	-33850.0	-5688870.0
16	14	56	2	147	135.0	73892.0	-33451.0	-5688506.0
16	14	56	2	147	136.0	77056.0	-32576.0	-5689904.0
16	14	56	2	148	137.0	81520.0	-31981.0	-5689644.0
16	14	56	2	148	138.0	80632.0	-31144.0	-5688918.0
16	14	56	2	149	139.0	93739.0	-30529.0	-5688904.0
16	14	56	2	149	140.0	118450.0	-30562.0	-5690186.0
16	14	56	2	150	141.0	131214.0	-29831.0	-5689646.0
16	14	56	2	150	143.0	128256.0	-28437.0	-5689027.0
16	14	56	2	150	144.0	135426.0	-28701.0	-5690302.0
16	14	56	2	151	145.0	130898.0	-28524.0	-5689749.0
16	14	56	2	151	146.0	112991.0	-27894.0	-5689014.0
16	14	56	2	151	147.0	94483.0	-26965.0	-5688506.0
16	14	56	2	152	148.0	71241.0	-26542.0	-5689664.0
16	14	56	2	215	149.0	43692.0	-25934.0	-5689642.0
16	14	56	2	215	150.0	-1927.0	-24739.0	-5688883.0
16	14	56	2	215	151.0	-50253.0	-23024.0	-5688752.0
16	14	56	2	216	152.0	-87152.0	-22303.0	-5690298.0
16	14	56	2	216	153.0	-105731.0	-21721.0	-5690061.0
16	14	56	2	216	154.0	-116847.0	-20755.0	-5689273.0
16	14	56	2	216	155.0	-129002.0	-20181.0	-5688977.0
16	14	56	2	217	156.0	-136097.0	-19261.0	-5690164.0
16	14	56	2	217	157.0	-116991.0	-18672.0	-5689941.0
16	14	56	2	217	158.0	-76483.0	-17902.0	-5689165.0
16	14	56	2	217	159.0	-37162.0	-17376.0	-5688806.0
16	14	56	2	217	160.0	-13838.0	-16595.0	-5689965.0
16	14	56	2	218	161.0	1847.0	-15882.0	-5689852.0
16	14	56	2	218	162.0	9042.0	-15073.0	-5689045.0
16	14	56	2	218	163.0	-6212.0	-14049.0	-5688691.0
16	14	56	2	219	165.0	-20076.0	-12264.0	-5689950.0
16	14	56	2	219	166.0	-28216.0	-12069.0	-5689116.0
16	14	56	2	219	167.0	-37534.0	-12287.0	-5688654.0
16	14	56	2	219	168.0	-45796.0	-10847.0	-5689786.0
16	14	56	2	220	169.0	-44409.0	-9723.0	-5689986.0
16	14	56	2	220	170.0	-41084.0	-9001.0	-5689169.0
16	14	56	2	220	171.0	-32807.0	-8645.0	-5689340.0
16	14	56	2	288	172.0	-15451.0	-7994.0	-5690692.0
16	14	56	2	288	173.0	11372.0	-6682.0	-5690320.0
16	14	56	2	288	174.0	32074.0	-5086.0	-5689472.0
16	14	56	2	288	175.0	50773.0	-4003.0	-5689119.0
16	14	56	2	289	176.0	84259.0	-3266.0	-5690211.0
16	14	56	2	289	177.0	112431.0	-2629.0	-5690133.0
16	14	56	2	289	178.0	118861.0	-1831.0	-5689275.0
16	14	56	2	289	179.0	110003.0	-755.0	-5688656.0
16	14	56	2	290	180.0	94453.0	249.0	-5689566.0
16	14	56	2	290	181.0	74262.0	117.0	-5689974.0
16	14	56	2	290	182.0	51319.0	95.0	-5689190.0
16	14	56	2	290	183.0	25803.0	527.0	-5688647.0
16	14	56	2	291	184.0	13089.0	1096.0	-5689732.0
16	14	56	2	291	185.0	11805.0	1580.0	-5689835.0
16	14	56	2	291	188.0	43081.0	2412.0	-5689777.0
16	14	56	2	291	189.0	46814.0	1509.0	-5689936.0
16	14	56	2	292	190.0	46111.0	1230.0	-5689155.0
16	14	56	2	292	191.0	48693.0	1521.0	-5688764.0
16	14	56	2	292	192.0	44728.0	2003.0	-5690186.0
16	14	56	2	292	193.0	38789.0	2316.0	-5690134.0
16	14	56	2	293	194.0	30138.0	2345.0	-5689383.0
16	14	56	2	293	195.0	15081.0	2944.0	-5688691.0
16	14	56	2	293	196.0	-267.0	4198.0	-5689805.0
16	14	56	2	293	197.0	-2324.0	4504.0	-5690182.0
16	14	56	2	294	198.0	-4537.0	5022.0	-5689471.0
16	14	56	2	294	199.0	-2634.0	4840.0	-5688809.0
16	14	56	2	294	200.0	4059.0	4716.0	-5689843.0
16	14	56	2	294	201.0	19621.0	4707.0	-5690162.0
16	14	56	2	295	202.0	40105.0	4667.0	-5689457.0
16	14	56	2	295	203.0	58955.0	4598.0	-5689151.0
16	14	56	2	295	204.0	70992.0	4335.0	-5690360.0
16	14	56	2	296	205.0	75976.0	4344.0	-5689976.0
16	14	56	2	296	206.0	78761.0	4219.0	-5689284.0
16	14	56	2	296	207.0	80073.0	4381.0	-5688776.0
16	14	56	2	296	208.0	81519.0	4543.0	-5690061.0
16	14	56	2	297	210.0	69857.0	3949.0	-5689319.0
16	14	56	2	297	211.0	57566.0	3101.0	-5688689.0
16	14	56	2	297	212.0	43134.0	2824.0	-5689442.0
16	14	56	2	297	213.0	34910.0	3035.0	-5689232.0
16	14	56	2	298	214.0	36956.0	3105.0	-5688537.0
16	14	56	2	298	215.0	43603.0	3014.0	-5688976.0
16	14	56	2	358	216.0	42091.0	3318.0	-5689887.0
16	14	56	2	358	217.0	27822.0	4064.0	-5689157.0
16	14	56	2	359	218.0	6963.0	5026.0	-5688581.0
16	14	56	2	359	219.0	-1412.0	5261.0	-5689537.0
16	14	56	2	359	220.0	263.0	4838.0	-5690231.0
16	14	56	2	359	221.0	56.0	4336.0	-5689442.0
16	14	56	2	360	222.0	-1037.0	4439.0	-5688892.0
16	14	56	2	360	223.0	-4206.0	4668.0	-5689762.0
16	14	56	2	360	224.0	360.0	4920.0	-5689994.0
16	14	56	2	360	225.0	6955.0	4593.0	-5689169.0
16	14	56	2	361	226.0	-1178.0	4753.0	-5688471.0
16	14	56	2	361	227.0	-15776.0	4849.0	-5688739.0
16	14	56	2	361	228.0	-47456.0	4645.0	-5689658.0
16	14	56	2	361	229.0	-100476.0	4231.0	-5688955.0
16	14	56	2	361	230.0	-133301.0	3921.0	-5688267.0
16	14	56	2	362	232.0	-126719.0	4159.0	-5689824.0
16	14	56	2	362	233.0	-112544.0	3873.0	-5689087.0
16	14	56	2	362	234.0	-66026.0	2516.0	-5688381.0
16	14	56	2	362	235.0	14703.0	3021.0	-5689120.0
16	14	56	2	363	236.0	99840.0	3929.0	-5689996.0
16	14	56	2	363	255.0	382633.0	5521.0	-5689272.0
16	14	56	2	363	0.0	479851.0	4071.0	-5690456.0
16	14	56	2	432	1.0	547590.0	3501.0	-5689965.0
16	14	56	2	433	2.0	580054.0	3815.0	-5689136.0
16	14	56	2	433	3.0	582084.0	3698.0	-5689067.0
16	14	56	2	433	4.0	571694.0	3728.0	-5690319.0
16	14	56	2	433	5.0	585331.0	3678.0	-5690024.0
16	14	56	2	433	6.0	615404.0	4008.0	-5689200.0
16	14	56	2	434	7.0	645921.0	5154.0	-5689080.0
16	14	56	2	434	8.0	616279.0	5656.0	-5690156.0
16	14	56	2	434	9.0	272772.0	5251.0	-5689732.0
16	14	56	2	434	10.0	-381871.0	4937.0	-5688854.0
16	14	56	2	435	11.0	-1121451.0	4852.0	-5688939.0
16	14	56	2	435	12.0	-1895018.0	4924.0	-5690290.0
16	14	56	2	435	13.0	-2456149.0	5346.0	-5689844.0
16	14	56	2	435	14.0	-2506391.0	5239.0	-5689042.0
16	14	56	2	436	15.0	-1827951.0	4741.0	-5689341.0
16	14	56	2	436	16.0	-617797.0	4183.0	-5690765.0
16	14	56	2	436	17.0	615159.0	4473.0	-5690382.0
16	14	56	2	436	18.0	1418616.0	5289.0	-5689653.0
16	14	56	2	437	19.0	1806149.0	6089.0	-5689106.0
16	14	56	2	437	21.0	2164293.0	6193.0	-5690428.0
16	14	56	2	437	22.0	1847946.0	5749.0	-5689671.0
16	14	56	2	437	23.0	1140019.0	4616.0	-5689082.0
16	14	56	2	438	24.0	251919.0	4308.0	-5690204.0
16	14	56	2	438	25.0	-601729.0	4618.0	-5690049.0
16	14	56	2	438	26.0	-1222134.0	4850.0	-5689267.0
16	14	56	2	438	27.0	-1639512.0	5098.0	-5689187.0
16	14	56	2	504	28.0	-1774689.0	4959.0	-5690361.0
16	14	56	2	504	29.0	-1496527.0	5583.0	-5689867.0
16	14	56	2	505	30.0	-1029421.0	6593.0	-5689208.0
16	14	56	2	505	31.0	-570067.0	6132.0	-5689013.0
16	14	56	2	505	32.0	-112357.0	5841.0	-5690479.0
16	14	56	2	505	33.0	208473.0	6679.0	-5690186.0
16	14	56	2	506	34.0	409704.0	6894.0	-5689485.0
16	14	56	2	506	35.0	454148.0	6951.0	-5688872.0
16	14	56	2	506	36.0	383737.0	6367.0	-5690230.0
16	14	56	2	506	37.0	187404.0	6173.0	-5690381.0
16	14	56	2	507	38.0	-104233.0	6069.0	-5689652.0
16	14	56	2	507	39.0	-272509.0	6226.0	-5688952.0
16	14	56	2	507	40.0	-212750.0	6591.0	-5689999.0
16	14	56	2	507	41.0	-36899.0	6824.0	-5690393.0
16	14	56	2	508	42.0	122449.0	6810.0	-5689688.0
16	14	56	2	508	44.0	303044.0	6429.0	-5690646.0
16	14	56	2	508	45.0	317675.0	5705.0	-5690661.0
16	14	56	2	509	46.0	296751.0	5628.0	-5689915.0
16	14	56	2	509	47.0	276456.0	5919.0	-5689340.0
16	14	56	2	509	48.0	289642.0	6115.0	-5690481.0
16	14	56	2	509	49.0	333758.0	6296.0	-5690545.0
16	14	56	2	510	50.0	360761.0	6223.0	-5689782.0
16	14	56	2	510	51.0	337349.0	6264.0	-5689005.0
16	14	56	2	510	52.0	282819.0	7269.0	-5689590.0
16	14	56	2	510	53.0	232709.0	7221.0	-5690356.0
16	14	56	2	511	54.0	198459.0	7139.0	-5689646.0
16	14	56	2	511	55.0	174144.0	7022.0	-5689113.0
16	14	56	2	511	56.0	154556.0	6991.0	-5690196.0
16	14	56	2	511	57.0	139045.0	7250.0	-5690502.0
16	14	56	2	512	58.0	124516.0	7407.0	-5689709.0
16	14	56	2	512	59.0	131271.0	7701.0	-5689215.0
16	14	56	2	512	60.0	147953.0	7886.0	-5690306.0
16	14	56	2	512	61.0	161828.0	7932.0	-5690433.0
16	14	56	2	513	62.0	179918.0	8151.0	-5689653.0
16	14	56	2	513	63.0	202773.0	8277.0	-5689199.0
16	14	56	2	513	64.0	213176.0	7924.0	-5690601.0
16	14	56	2	514	66.0	206494.0	7906.0	-5690121.0
16	14	56	2	514	67.0	183623.0	7296.0	-5689487.0
16	14	56	2	514	68.0	137723.0	6186.0	-5690317.0
16	14	56	2	515	69.0	77126.0	6561.0	-5690910.0
16	14	56	2	515	70.0	13617.0	6469.0	-5690116.0
16	14	56	2	515	71.0	-39389.0	6378.0	-5689477.0
16	14	56	2	516	72.0	-86610.0	6846.0	-5690124.0
16	14	56	2	577	73.0	-122127.0	7075.0	-5691012.0
16	14	56	2	577	74.0	-143577.0	7109.0	-5690249.0
16	14	56	2	578	75.0	-125901.0	7664.0	-5689717.0
16	14	56	2	578	76.0	-72134.0	7990.0	-5690622.0
16	14	56	2	578	77.0	792.0	8354.0	-5690878.0
16	14	56	2	578	78.0	68323.0	8349.0	-5690097.0
16	14	56	2	579	79.0	105413.0	8520.0	-5689462.0
16	14	56	2	579	80.0	132243.0	8935.0	-5690103.0
16	14	56	2	579	81.0	163530.0	8988.0	-5691002.0
16	14	56	2	579	82.0	191806.0	8948.0	-5690233.0
16	14	56	2	580	83.0	207268.0	9106.0	-5689521.0
16	14	56	2	580	84.0	204468.0	9313.0	-5689851.0
16	14	56	2	580	85.0	180742.0	9341.0	-5690839.0
16	14	56	2	580	86.0	148120.0	8673.0	-5690162.0
16	14	56	2	580	87.0	114532.0	8769.0	-5689444.0
16	14	56	2	581	89.0	29613.0	9272.0	-5691085.0
16	14	56	2	581	90.0	-23687.0	8246.0	-5690453.0
16	14	56	2	581	91.0	-60959.0	8178.0	-5689743.0
16	14	56	2	581	92.0	-73243.0	8902.0	-5689967.0
16	14	56	2	582	93.0	-66449.0	9308.0	-5691059.0
16	14	56	2	582	94.0	-46806.0	9448.0	-5690432.0
16	14	56	2	582	95.0	-17236.0	10111.0	-5689758.0
16	14	56	2	582	96.0	13351.0	10542.0	-5690683.0
16	14	56	2	582	97.0	42892.0	12335.0	-5691497.0
16	14	56	2	583	98.0	75724.0	13253.0	-5690762.0
16	14	56	2	583	99.0	111003.0	14234.0	-5689921.0
16	14	56	2	583	100.0	155808.0	15263.0	-5689854.0
16	14	56	2	583	101.0	187072.0	16276.0	-5691157.0
16	14	56	2	584	102.0	199295.0	17690.0	-5690818.0
16	14	56	2	584	103.0	202133.0	18663.0	-5689983.0
16	14	56	2	584	104.0	202319.0	19388.0	-5689856.0
16	14	56	2	584	105.0	189557.0	20501.0	-5691321.0
16	14	56	2	585	106.0	170319.0	22540.0	-5691106.0
16	14	56	2	585	107.0	160161.0	24268.0	-5690319.0
16	14	56	2	585	108.0	147164.0	26408.0	-5690519.0
16	14	56	2	585	109.0	131528.0	28986.0	-5691661.0
16	14	56	2	586	111.0	111953.0	34149.0	-5690350.0
16	14	56	2	586	112.0	117669.0	35889.0	-5690305.0
16	14	56	2	586	113.0	132035.0	36981.0	-5691502.0
16	14	56	2	587	114.0	150948.0	39481.0	-5691159.0
16	14	56	2	653	115.0	162858.0	41965.0	-5690289.0
16	14	56	2	653	116.0	175106.0	44369.0	-5690257.0
16	14	56	2	653	117.0	179833.0	46515.0	-5691512.0
16	14	56	2	654	118.0	175063.0	48518.0	-5691214.0
16	14	56	2	654	119.0	156396.0	50693.0	-5690384.0
16	14	56	2	654	120.0	135123.0	53417.0	-5689841.0
16	14	56	2	654	121.0	112733.0	54787.0	-5690803.0
16	14	56	2	655	122.0	104884.0	55758.0	-5691086.0
16	14	56	2	655	123.0	121716.0	56513.0	-5690277.0
16	14	56	2	655	124.0	162678.0	57034.0	-5689956.0
16	14	56	2	656	125.0	211741.0	57559.0	-5691139.0
16	14	56	2	656	126.0	259101.0	58163.0	-5691075.0
16	14	56	2	656	127.0	302499.0	58702.0	-5690257.0
16	14	56	2	656	128.0	337597.0	59153.0	-5689794.0
16	14	56	2	657	129.0	374671.0	59319.0	-5691026.0
16	14	56	2	657	130.0	389501.0	59268.0	-5691237.0
16	14	56	2	657	131.0	363174.0	58990.0	-5690395.0
16	14	56	2	658	132.0	312074.0	58414.0	-5689676.0
16	14	56	2	658	134.0	191785.0	56884.0	-5691107.0
16	14	56	2	658	135.0	149301.0	54971.0	-5690416.0
16	14	56	2	658	136.0	113854.0	54090.0	-5689680.0
16	14	56	2	659	137.0	87214.0	53448.0	-5690384.0
16	14	56	2	659	138.0	31802.0	52751.0	-5691129.0
16	14	56	2	659	139.0	-158851.0	51986.0	-5690446.0
16	14	56	2	729	140.0	-497999.0	50994.0	-5689869.0
16	14	56	2	729	141.0	-831022.0	50350.0	-5690977.0
16	14	56	2	730	142.0	-927379.0	49966.0	-5691043.0
16	14	56	2	730	143.0	-578104.0	48441.0	-5690332.0
16	14	56	2	730	144.0	179270.0	47113.0	-5689704.0
16	14	56	2	731	145.0	982764.0	45712.0	-5690761.0
16	14	56	2	731	146.0	1390395.0	43779.0	-5691302.0
16	14	56	2	731	147.0	1202142.0	42087.0	-5690572.0
16	14	56	2	732	148.0	558758.0	40061.0	-5689783.0
16	14	56	2	732	149.0	-54702.0	38418.0	-5690740.0
16	14	56	2	732	150.0	-429424.0	36574.0	-5691225.0
16	14	56	2	733	151.0	-622060.0	34896.0	-5690524.0
16	14	56	2	733	152.0	-645437.0	33106.0	-5689709.0
16	14	56	2	733	153.0	-539921.0	30924.0	-5690354.0
16	14	56	2	734	154.0	-371196.0	28824.0	-5691261.0
16	14	56	2	734	156.0	-90615.0	24564.0	-5690119.0
16	14	56	2	734	157.0	-43909.0	22163.0	-5691327.0
16	14	56	2	734	158.0	-67514.0	19659.0	-5691410.0
16	14	56	2	735	159.0	-132704.0	17846.0	-5690687.0
16	14	56	2	735	160.0	-214169.0	16388.0	-5690004.0
16	14	56	2	735	161.0	-276701.0	14915.0	-5691072.0
16	14	56	2	735	162.0	-330636.0	12922.0	-5691442.0
16	14	56	2	736	163.0	-405626.0	11028.0	-5690661.0
16	14	56	2	736	164.0	-455956.0	9808.0	-5689901.0
16	14	56	2	736	165.0	-450218.0	8406.0	-5690229.0
16	14	56	2	737	166.0	-391016.0	6606.0	-5690671.0
16	14	56	2	737	167.0	-286809.0	4981.0	-5690002.0
16	14	56	2	737	168.0	-120021.0	2955.0	-5689868.0
16	14	56	2	738	169.0	45271.0	1356.0	-5691148.0
16	14	56	2	738	170.0	156047.0	-805.0	-5690761.0
16	14	56	2	738	171.0	212164.0	-2692.0	-5690035.0
16	14	56	2	739	172.0	231124.0	-4634.0	-5690151.0
16	14	56	2	739	173.0	237259.0	-5721.0	-5691319.0
16	14	56	2	739	174.0	224819.0	-6943.0	-5690782.0
16	14	56	2	804	175.0	200464.0	-8960.0	-5690037.0
16	14	56	2	805	176.0	177680.0	-10689.0	-5690059.0
16	14	56	2	805	177.0	178190.0	-12022.0	-5690962.0
16	14	56	2	805	179.0	233503.0	-15384.0	-5689559.0
16	14	56	2	806	180.0	267547.0	-17492.0	-5689411.0
16	14	56	2	806	181.0	291683.0	-18899.0	-5690742.0
16	14	56	2	806	182.0	289562.0	-19757.0	-5690504.0
16	14	56	2	807	183.0	254884.0	-20527.0	-5689708.0
16	14	56	2	807	184.0	202858.0	-20018.0	-5689762.0
16	14	56	2	807	185.0	156966.0	-20852.0	-5690977.0
16	14	56	2	808	186.0	122136.0	-22038.0	-5690556.0
16	14	56	2	808	187.0	97069.0	-22783.0	-5689755.0
16	14	56	2	808	188.0	95363.0	-23191.0	-5689702.0
16	14	56	2	809	189.0	104876.0	-23996.0	-5690967.0
16	14	56	2	809	190.0	112064.0	-25004.0	-5690642.0
16	14	56	2	809	201.0	79243.0	-32561.0	-5690751.0
16	14	56	2	809	202.0	43062.0	-33247.0	-5690421.0
16	14	56	2	810	203.0	1394.0	-34361.0	-5689626.0
16	14	56	2	810	204.0	-30098.0	-34752.0	-5689796.0
16	14	56	2	810	205.0	-45797.0	-35153.0	-5690799.0
16	14	56	2	810	206.0	-44117.0	-34946.0	-5690293.0
16	14	56	2	811	207.0	-31557.0	-34202.0	-5689483.0
16	14	56	2	811	208.0	-13346.0	-34263.0	-5689770.0
16	14	56	2	811	209.0	9829.0	-33389.0	-5690764.0
16	14	56	2	811	210.0	34804.0	-33176.0	-5690226.0
16	14	56	2	812	211.0	48514.0	-32660.0	-5689375.0
16	14	56	2	812	212.0	49574.0	-32692.0	-5689053.0
16	14	56	2	812	213.0	38796.0	-32421.0	-5690326.0
16	14	56	2	813	214.0	20792.0	-32618.0	-5690089.0
16	14	56	2	813	215.0	-220.0	-32573.0	-5689291.0
16	14	56	2	813	216.0	-17218.0	-33054.0	-5688913.0
16	14	56	2	814	217.0	-26477.0	-32423.0	-5690090.0
16	14	56	2	814	218.0	-31831.0	-31432.0	-5689836.0
16	14	56	2	814	219.0	-34608.0	-30799.0	-5689102.0
16	14	56	2	815	220.0	-34415.0	-30627.0	-5689034.0
16	14	56	2	815	221.0	-38439.0	-29968.0	-5690360.0
16	14	56	2	816	224.0	10818.0	-28276.0	-5689296.0
16	14	56	2	816	225.0	42502.0	-28652.0	-5690443.0
16	14	56	2	816	226.0	69693.0	-28052.0	-5689887.0
16	14	56	2	817	227.0	92054.0	-27364.0	-5689127.0
16	14	56	2	817	228.0	113681.0	-26581.0	-5688677.0
16	14	56	2	818	229.0	133599.0	-25572.0	-5689456.0
16	14	56	2	891	230.0	138063.0	-24606.0	-5688991.0
16	14	56	2	892	231.0	118340.0	-23034.0	-5688362.0
16	14	56	2	892	232.0	99092.0	-21256.0	-5689232.0
16	14	56	2	893	233.0	93733.0	-20421.0	-5689832.0
16	14	56	2	893	234.0	90984.0	-19957.0	-5689026.0
16	14	56	2	893	235.0	87001.0	-19974.0	-5688705.0
16	14	56	2	894	236.0	88143.0	-18964.0	-5690061.0
16	14	56	2	894	237.0	83291.0	-18341.0	-5690041.0
16	14	56	2	894	238.0	70613.0	-17557.0	-5689202.0
16	14	56	2	894	239.0	44342.0	-16667.0	-5688749.0
16	14	56	2	895	240.0	10333.0	-15529.0	-5689963.0
16	14	56	2	895	241.0	-25530.0	-14496.0	-5690236.0
16	14	56	2	895	242.0	-52429.0	-13549.0	-5689401.0
16	14	56	2	895	243.0	-66692.0	-12481.0	-5688717.0
16	14	56	2	896	244.0	-62828.0	-11919.0	-5689566.0
16	14	56	2	896	246.0	-41763.0	-10949.0	-5689907.0
16	14	56	2	896	247.0	-45786.0	-10674.0	-5689184.0
16	14	56	2	897	248.0	-49629.0	-10365.0	-5689262.0
16	14	56	2	897	249.0	-57606.0	-9911.0	-5690430.0
16	14	56	2	897	250.0	-63918.0	-8845.0	-5689866.0
16	14	56	2	898	251.0	-67797.0	-8159.0	-5689217.0
16	14	56	2	898	252.0	-73258.0	-7166.0	-5689838.0
16	14	56	2	898	253.0	-82826.0	-6350.0	-5690662.0
16	14	56	2	898	254.0	-92454.0	-4861.0	-5689920.0
16	14	56	2	899	255.0	-103724.0	-3879.0	-5689303.0
16	14	56	2	899	0.0	-113464.0	-3489.0	-5690132.0
16	14	56	2	899	1.0	-110820.0	-3538.0	-5690669.0
16	14	56	2	899	2.0	-95367.0	-2675.0	-5689858.0
16	14	56	2	900	3.0	-74820.0	-1737.0	-5689084.0
16	14	56	2	900	4.0	-45081.0	-1152.0	-5689546.0
16	14	56	2	900	5.0	-17575.0	-746.0	-5690630.0
16	14	56	2	980	6.0	17384.0	143.0	-5690014.0
16	14	56	2	981	7.0	62796.0	838.0	-5689255.0
16	14	56	2	981	8.0	101934.0	1258.0	-5689550.0
16	14	56	2	981	9.0	128701.0	1835.0	-5690638.0
16	14	56	2	982	10.0	144821.0	2223.0	-5690059.0
16	14	56	2	982	12.0	173253.0	2710.0	-5689927.0
16	14	56	2	982	13.0	167008.0	2565.0	-5690873.0
16	14	56	2	983	14.0	143761.0	1929.0	-5690254.0
16	14	56	2	983	15.0	108344.0	2161.0	-5689471.0
16	14	56	2	983	16.0	76529.0	2551.0	-5689839.0
16	14	56	2	984	17.0	50816.0	2790.0	-5690715.0
16	14	56	2	984	18.0	37539.0	2861.0	-5690090.0
16	14	56	2	985	19.0	45729.0	3066.0	-5689276.0
16	14	56	2	985	20.0	68186.0	3549.0	-5689974.0
16	14	56	2	985	21.0	89899.0	4579.0	-5690940.0
16	14	56	2	986	22.0	94651.0	5061.0	-5690324.0
16	14	56	2	986	23.0	87084.0	4784.0	-5689506.0
16	14	56	2	986	24.0	76176.0	4623.0	-5689739.0
16	14	56	2	987	25.0	76005.0	4892.0	-5690878.0
16	14	56	2	987	26.0	93387.0	4696.0	-5690416.0
16	14	56	2	987	27.0	119093.0	4823.0	-5689657.0
16	14	56	2	987	28.0	133774.0	4796.0	-5690232.0
16	14	56	2	988	29.0	132348.0	4709.0	-5691026.0
16	14	56	2	988	30.0	120267.0	4561.0	-5690407.0
16	14	56	2	989	31.0	108529.0	4218.0	-5689579.0
16	14	56	2	989	32.0	81662.0	4045.0	-5690046.0
16	14	56	2	989	33.0	50903.0	3949.0	-5690980.0
16	14	56	2	990	35.0	-537.0	4073.0	-5689555.0
16	14	56	2	990	36.0	-13898.0	3226.0	-5689628.0
16	14	56	2	990	37.0	-27135.0	2504.0	-5690515.0
16	14	56	2	991	38.0	-38001.0	2891.0	-5690004.0
16	14	56	2	991	39.0	-48491.0	2698.0	-5689235.0
16	14	56	2	992	40.0	-63249.0	2588.0	-5689799.0
16	14	56	2	992	41.0	-74441.0	3054.0	-5690691.0
16	14	56	2	992	42.0	-74107.0	3386.0	-5690052.0
16	14	56	2	993	43.0	-58107.0	5078.0	-5689351.0
16	14	56	2	993	44.0	-36779.0	5252.0	-5690064.0
16	14	56	3	70	45.0	-23313.0	4905.0	-5690617.0
16	14	56	3	70	46.0	-25516.0	4524.0	-5689914.0
16	14	56	3	71	47.0	-43905.0	3956.0	-5689143.0
16	14	56	3	71	48.0	-57259.0	3759.0	-5689300.0
16	14	56	3	71	49.0	-61821.0	3693.0	-5689581.0
16	14	56	3	72	50.0	-69881.0	3570.0	-5688900.0
16	14	56	3	72	51.0	-87617.0	3699.0	-5688849.0
16	14	56	3	72	52.0	-102822.0	3799.0	-5690071.0
16	14	56	3	73	53.0	-106027.0	3604.0	-5689577.0
16	14	56	3	73	54.0	-90760.0	3233.0	-5688802.0
16	14	56	3	73	55.0	-57418.0	2561.0	-5688676.0
16	14	56	3	74	57.0	11769.0	3011.0	-5689874.0
16	14	56	3	74	58.0	27614.0	2450.0	-5689122.0
16	14	56	3	74	59.0	25672.0	1435.0	-5689728.0
16	14	56	3	75	60.0	-2054.0	1601.0	-5690713.0
16	14	56	3	75	61.0	-49272.0	1629.0	-5690057.0
16	14	56	3	75	62.0	-95725.0	1642.0	-5689255.0
16	14	56	3	76	63.0	-126821.0	1656.0	-5689227.0
16	14	56	3	76	64.0	-135654.0	1508.0	-5690569.0
16	14	56	3	76	65.0	-131142.0	1793.0	-5690248.0
16	14	56	3	164	66.0	-106353.0	2602.0	-5689440.0
16	14	56	3	164	67.0	-69418.0	2791.0	-5689057.0
16	14	56	3	165	68.0	-35219.0	3101.0	-5690238.0
16	14	56	3	166	69.0	-1089.0	2666.0	-5690211.0
16	14	56	3	166	70.0	44003.0	2401.0	-5689400.0
16	14	56	3	166	71.0	113853.0	2669.0	-5688956.0
16	14	56	3	167	72.0	206183.0	2918.0	-5689994.0
16	14	56	3	167	73.0	307383.0	3049.0	-5690171.0
16	14	56	3	167	74.0	402746.0	2946.0	-5689380.0
16	14	56	3	168	75.0	465282.0	2444.0	-5689199.0
16	14	56	3	169	76.0	493257.0	2767.0	-5690633.0
16	14	56	3	169	77.0	509214.0	3253.0	-5690560.0
16	14	56	3	171	78.0	539089.0	3411.0	-5689717.0
16	14	56	3	171	102.0	-1662662.0	3932.0	-5690073.0
16	14	56	3	172	103.0	-1623917.0	3831.0	-5689570.0
16	14	56	3	173	104.0	-1399957.0	3411.0	-5690792.0
16	14	56	3	173	125.0	404289.0	6473.0	-5690362.0
16	14	56	3	174	126.0	380286.0	5464.0	-5689668.0
16	14	56	3	174	127.0	322389.0	4664.0	-5690028.0
16	14	56	3	175	128.0	242838.0	4886.0	-5690817.0
16	14	56	3	175	129.0	160539.0	4788.0	-5690037.0
16	14	56	3	175	130.0	77585.0	5094.0	-5689328.0
16	14	56	3	176	131.0	4903.0	5153.0	-5689894.0
16	14	56	3	176	132.0	-51512.0	5787.0	-5691010.0
16	14	56	3	176	133.0	-93623.0	6372.0	-5690267.0
16	14	56	3	177	134.0	-118819.0	7080.0	-5689524.0
16	14	56	3	177	135.0	-119871.0	7016.0	-5689607.0
16	14	56	3	177	136.0	-99847.0	6968.0	-5690743.0
16	14	56	3	177	137.0	-68348.0	7428.0	-5690177.0
16	14	56	3	178	138.0	-41231.0	7147.0	-5689537.0
16	14	56	3	178	139.0	-25606.0	6890.0	-5690573.0
16	14	56	3	178	140.0	-25465.0	7198.0	-5691269.0
16	14	56	3	179	141.0	-27280.0	6764.0	-5690516.0
16	14	56	3	179	142.0	-34196.0	7277.0	-5689842.0
16	14	56	3	179	147.0	-39170.0	7683.0	-5689674.0
16	14	56	3	180	148.0	-32936.0	6720.0	-5690882.0
16	14	56	3	180	149.0	-19326.0	5759.0	-5690442.0
16	14	56	3	180	150.0	1372.0	6105.0	-5689627.0
16	14	56	3	181	151.0	32651.0	6247.0	-5689941.0
16	14	56	3	181	152.0	69295.0	6273.0	-5691013.0
16	14	56	3	181	153.0	81854.0	6704.0	-5690446.0
16	14	56	3	260	154.0	74544.0	6679.0	-5689616.0
16	14	56	3	260	155.0	61021.0	7026.0	-5689850.0
16	14	56	3	261	156.0	53983.0	8269.0	-5691021.0
16	14	56	3	261	157.0	59365.0	8641.0	-5690526.0
16	14	56	3	261	158.0	79634.0	8084.0	-5689731.0
16	14	56	3	262	159.0	108876.0	8166.0	-5690186.0
16	14	56	3	262	160.0	148554.0	8355.0	-5691124.0
16	14	56	3	262	161.0	191510.0	8971.0	-5690557.0
16	14	56	3	263	162.0	247015.0	9104.0	-5689714.0
16	14	56	3	263	163.0	285622.0	9521.0	-5689481.0
16	14	56	3	263	164.0	301309.0	9664.0	-5690787.0
16	14	56	3	264	165.0	287333.0	9677.0	-5690643.0
16	14	56	3	264	166.0	260654.0	9998.0	-5689788.0
16	14	56	3	264	167.0	227212.0	10687.0	-5689498.0
16	14	56	3	265	168.0	193290.0	10629.0	-5690681.0
16	14	56	3	265	170.0	164801.0	12142.0	-5689681.0
16	14	56	3	266	171.0	148678.0	11711.0	-5689835.0
16	14	56	3	266	172.0	101354.0	12054.0	-5690809.0
16	14	56	3	266	173.0	30351.0	13328.0	-5690299.0
16	14	56	3	267	174.0	-41647.0	14473.0	-5689494.0
16	14	56	3	267	175.0	-103735.0	15657.0	-5689750.0
16	14	56	3	268	176.0	-136516.0	16791.0	-5690749.0
16	14	56	3	268	177.0	-139492.0	18796.0	-5690169.0
16	14	56	3	269	178.0	-123142.0	20826.0	-5689357.0
16	14	56	3	269	179.0	-93265.0	22079.0	-5689550.0
16	14	56	3	269	180.0	-75917.0	23784.0	-5690861.0
16	14	56	3	270	181.0	-70237.0	25402.0	-5690374.0
16	14	56	3	270	182.0	-81832.0	27738.0	-5689614.0
16	14	56	3	270	183.0	-96632.0	30253.0	-5689416.0
16	14	56	3	271	184.0	-91668.0	33155.0	-5690740.0
16	14	56	3	271	185.0	-71012.0	35904.0	-5690430.0
16	14	56	3	271	186.0	-37159.0	38290.0	-5689679.0
16	14	56	3	272	187.0	13120.0	40504.0	-5689457.0
16	14	56	3	272	188.0	65691.0	42559.0	-5690774.0
16	14	56	3	273	189.0	102972.0	44186.0	-5690441.0
16	14	56	3	273	190.0	105578.0	46050.0	-5689699.0
16	14	56	3	273	192.0	86589.0	50101.0	-5690894.0
16	14	56	3	274	193.0	89392.0	50750.0	-5690385.0
16	14	56	3	274	194.0	95383.0	51354.0	-5689665.0
16	14	56	3	274	195.0	112404.0	52784.0	-5689192.0
16	14	56	3	275	196.0	132906.0	53968.0	-5690528.0
16	14	56	3	275	197.0	151262.0	54956.0	-5690382.0
16	14	56	3	275	198.0	158619.0	55326.0	-5689670.0
16	14	56	3	360	199.0	147801.0	55903.0	-5689116.0
16	14	56	3	361	200.0	129088.0	57009.0	-5689947.0
16	14	56	3	361	201.0	127678.0	57951.0	-5689673.0
16	14	56	3	362	202.0	148595.0	58458.0	-5689182.0
16	14	56	3	362	203.0	181409.0	58830.0	-5690363.0
16	14	56	3	362	204.0	208684.0	58296.0	-5690750.0
16	14	56	3	363	205.0	229707.0	57764.0	-5689954.0
16	14	56	3	363	206.0	239502.0	57732.0	-5689441.0
16	14	56	3	363	207.0	230641.0	57550.0	-5690534.0
16	14	56	3	364	208.0	214283.0	56904.0	-5691046.0
16	14	56	3	364	209.0	198684.0	55813.0	-5690231.0
16	14	56	3	364	210.0	186499.0	54854.0	-5689614.0
16	14	56	3	365	211.0	170415.0	53916.0	-5690303.0
16	14	56	3	365	212.0	142779.0	53243.0	-5690783.0
16	14	56	3	365	213.0	93548.0	52146.0	-5689964.0
16	14	56	3	365	215.0	-302236.0	50276.0	-5689736.0
16	14	56	3	366	216.0	-680534.0	48019.0	-5690382.0
16	14	56	3	366	217.0	-967337.0	46416.0	-5689614.0
16	14	56	3	366	218.0	-1024057.0	45221.0	-5689154.0
16	14	56	3	366	219.0	-602262.0	43629.0	-5690456.0
16	14	56	3	367	220.0	257602.0	41903.0	-5690777.0
16	14	56	3	459	221.0	1024344.0	40666.0	-5690042.0
16	14	56	3	460	222.0	1256162.0	39654.0	-5689404.0
16	14	56	3	460	223.0	858513.0	39105.0	-5690182.0
16	14	56	3	460	224.0	229586.0	37532.0	-5690831.0
16	14	56	3	460	225.0	-239942.0	35240.0	-5690037.0
16	14	56	3	461	226.0	-463314.0	33255.0	-5689281.0
16	14	56	3	461	227.0	-495867.0	31058.0	-5689705.0
16	14	56	3	461	228.0	-398070.0	29508.0	-5690514.0
16	14	56	3	462	229.0	-248601.0	27682.0	-5689888.0
16	14	56	3	462	230.0	-100011.0	25019.0	-5689164.0
16	14	56	3	462	231.0	1556.0	23603.0	-5689691.0
16	14	56	3	462	232.0	34786.0	21865.0	-5690520.0
16	14	56	3	463	233.0	6681.0	20218.0	-5689901.0
16	14	56	3	463	234.0	-67844.0	17779.0	-5689200.0
16	14	56	3	463	235.0	-151858.0	15919.0	-5690017.0
16	14	56	3	463	4.0	247851.0	-21891.0	-5690631.0
16	14	56	3	464	5.0	236128.0	-23727.0	-5690251.0
16	14	56	3	557	6.0	233166.0	-24772.0	-5689441.0
16	14	56	3	558	7.0	234658.0	-25296.0	-5689032.0
16	14	56	3	558	8.0	234145.0	-26281.0	-5690217.0
16	14	56	3	559	9.0	233365.0	-26756.0	-5690101.0
16	14	56	3	559	10.0	237554.0	-26522.0	-5689330.0
16	14	56	3	559	11.0	240350.0	-26526.0	-5689361.0
16	14	56	3	559	12.0	237143.0	-27569.0	-5690564.0
16	14	56	3	560	13.0	219724.0	-28177.0	-5690083.0
16	14	56	3	560	14.0	203549.0	-28987.0	-5689296.0
16	14	56	3	560	15.0	193824.0	-29759.0	-5689646.0
16	14	56	3	561	16.0	186875.0	-30025.0	-5690642.0
16	14	56	3	561	17.0	178229.0	-30178.0	-5689994.0
16	14	56	3	561	18.0	175835.0	-30382.0	-5689277.0
16	14	56	3	561	19.0	187635.0	-30781.0	-5689102.0
16	14	56	3	562	26.0	32123.0	-33243.0	-5689473.0
16	14	56	3	562	48.0	90942.0	-24207.0	-5690284.0
16	14	56	3	562	71.0	-50727.0	-6166.0	-5688876.0
16	14	56	3	562	72.0	-69691.0	-6118.0	-5689844.0
16	14	56	3	563	73.0	-87854.0	-5680.0	-5690052.0
16	14	56	3	563	74.0	-99221.0	-4998.0	-5689312.0
16	14	56	3	563	75.0	-103015.0	-4808.0	-5688917.0
16	14	56	3	564	76.0	-106896.0	-4077.0	-5690420.0
16	14	56	3	660	77.0	-101785.0	-3472.0	-5690534.0
16	14	56	3	661	78.0	-90177.0	-3164.0	-5689766.0
16	14	56	3	661	79.0	-77574.0	-1989.0	-5689248.0
16	14	56	3	662	80.0	-68357.0	-765.0	-5690431.0
16	14	56	3	662	81.0	-67676.0	-409.0	-5690562.0
16	14	56	3	662	82.0	-66835.0	147.0	-5689782.0
16	14	56	3	663	83.0	-61636.0	493.0	-5689036.0
16	14	56	3	663	84.0	-37869.0	722.0	-5689866.0
16	14	56	3	663	85.0	-5907.0	1234.0	-5690281.0
16	14	56	3	664	86.0	29038.0	1776.0	-5689604.0
16	14	56	3	664	87.0	60916.0	2099.0	-5688839.0
16	14	56	3	664	88.0	77366.0	2411.0	-5689692.0
16	14	56	3	664	89.0	112519.0	2719.0	-5690326.0
16	14	56	3	665	90.0	200132.0	3121.0	-5689674.0
16	14	56	3	665	91.0	-35804.0	2931.0	-5689079.0
16	14	56	3	665	93.0	-41329.0	3419.0	-5690455.0
16	14	56	3	665	94.0	50643.0	2774.0	-5689755.0
16	14	56	3	666	95.0	80635.0	2528.0	-5689064.0
16	14	56	3	666	96.0	98634.0	2581.0	-5690057.0
16	14	56	3	666	97.0	122946.0	3018.0	-5690339.0
16	14	56	3	666	98.0	159006.0	3233.0	-5689622.0
16	14	56	3	667	99.0	188191.0	2976.0	-5688796.0
16	14	56	3	667	100.0	189409.0	3469.0	-5689447.0
16	14	56	3	667	101.0	183538.0	3561.0	-5690120.0
16	14	56	3	667	102.0	188988.0	4227.0	-5689486.0
16	14	56	3	668	103.0	193744.0	4366.0	-5688800.0
16	14	56	3	668	104.0	190914.0	3671.0	-5689464.0
16	14	56	3	668	105.0	173718.0	3785.0	-5689587.0
16	14	56	3	669	106.0	141023.0	3938.0	-5688887.0
16	14	56	3	669	107.0	97936.0	4301.0	-5688917.0
16	14	56	3	669	108.0	48152.0	4239.0	-5690317.0
16	14	56	3	670	109.0	7768.0	3799.0	-5689802.0
16	14	56	3	670	110.0	-11718.0	4228.0	-5689078.0
16	14	56	3	670	111.0	-12571.0	4231.0	-5688906.0
16	14	56	3	670	112.0	2761.0	3999.0	-5690104.0
16	14	56	3	671	113.0	18396.0	3587.0	-5689637.0
16	14	56	3	671	114.0	38943.0	3954.0	-5688914.0
16	14	56	3	671	116.0	59699.0	3291.0	-5689831.0
16	14	56	3	672	117.0	67252.0	2453.0	-5689485.0
16	14	56	3	672	118.0	55516.0	2187.0	-5688714.0
16	14	56	3	672	119.0	30449.0	2248.0	-5688604.0
16	14	56	3	673	120.0	9673.0	2162.0	-5689827.0
16	14	56	3	673	121.0	-1844.0	2242.0	-5689426.0
16	14	56	3	673	122.0	-7959.0	2011.0	-5688664.0
16	14	56	3	674	123.0	-18649.0	2060.0	-5689146.0
16	14	56	3	674	124.0	-29392.0	2638.0	-5690213.0
16	14	56	3	675	125.0	-25398.0	2978.0	-5689614.0
16	14	56	3	675	126.0	-8290.0	2916.0	-5688859.0
16	14	56	3	675	127.0	17129.0	2975.0	-5688964.0
16	14	56	3	676	128.0	60215.0	2894.0	-5690278.0
16	14	56	3	676	129.0	115004.0	2579.0	-5689857.0
16	14	56	3	676	130.0	152344.0	2629.0	-5689052.0
16	14	56	3	677	131.0	156856.0	2613.0	-5688772.0
16	14	56	3	677	132.0	139280.0	2669.0	-5690081.0
16	14	56	3	677	133.0	110254.0	2307.0	-5689971.0
16	14	56	3	678	134.0	78782.0	2255.0	-5689142.0
16	14	56	3	678	135.0	40959.0	2245.0	-5688675.0
16	14	56	3	680	136.0	5420.0	2518.0	-5689826.0
16	14	56	3	681	138.0	-7109.0	2185.0	-5689236.0
16	14	56	3	681	139.0	2561.0	1698.0	-5688860.0
16	14	56	3	683	140.0	24381.0	1078.0	-5690036.0
16	14	56	3	684	141.0	42825.0	1147.0	-5690121.0
16	14	56	3	685	142.0	36406.0	870.0	-5689315.0
16	14	56	3	686	143.0	1326.0	1034.0	-5688991.0
16	14	56	3	687	144.0	-57510.0	1191.0	-5690249.0
16	14	56	3	761	145.0	-127611.0	1418.0	-5690221.0
16	14	56	3	761	146.0	-194884.0	1770.0	-5689353.0
16	14	56	3	761	147.0	-239389.0	3156.0	-5688757.0
16	14	56	3	762	148.0	-258420.0	3593.0	-5689534.0
16	14	56	3	762	149.0	-257161.0	3484.0	-5689880.0
16	14	56	3	762	150.0	-229786.0	3048.0	-5689086.0
16	14	56	3	762	151.0	-166244.0	3191.0	-5688683.0
16	14	56	3	763	152.0	-75649.0	2943.0	-5689804.0
16	14	56	3	763	153.0	22861.0	2943.0	-5689812.0
16	14	56	3	763	154.0	118658.0	2943.0	-5689021.0
16	14	56	3	763	155.0	215289.0	2786.0	-5688928.0
16	14	56	3	764	156.0	298361.0	2743.0	-5690331.0
16	14	56	3	764	157.0	367775.0	3071.0	-5690107.0
16	14	56	3	764	158.0	439329.0	2755.0	-5689304.0
16	14	56	3	765	159.0	521878.0	3058.0	-5688906.0
16	14	56	3	765	161.0	698238.0	3016.0	-5690229.0
16	14	56	3	765	162.0	785014.0	2139.0	-5689426.0
16	14	56	3	765	163.0	911064.0	1824.0	-5688953.0
16	14	56	3	766	164.0	1096050.0	2003.0	-5690339.0
16	14	56	3	766	165.0	1275313.0	1886.0	-5690394.0
16	14	56	3	766	166.0	1263819.0	2428.0	-5689661.0
16	14	56	3	767	167.0	822404.0	2877.0	-5689006.0
16	14	56	3	767	168.0	59884.0	3203.0	-5690000.0
16	14	56	3	767	169.0	-899894.0	4456.0	-5690077.0
16	14	56	3	767	170.0	-1837807.0	4443.0	-5689276.0
16	14	56	3	768	171.0	-2437363.0	4364.0	-5689186.0
16	14	56	3	768	172.0	-2465270.0	4602.0	-5690404.0
16	14	56	3	768	173.0	-1819776.0	4565.0	-5689947.0
16	14	56	3	769	174.0	-728593.0	4654.0	-5689300.0
16	14	56	3	769	175.0	259007.0	4421.0	-5689259.0
16	14	56	3	769	176.0	759022.0	4602.0	-5690714.0
16	14	56	3	770	177.0	1023349.0	5053.0	-5690332.0
16	14	56	3	770	178.0	1350458.0	5123.0	-5689671.0
16	14	56	3	770	179.0	1503493.0	4945.0	-5688929.0
16	14	56	3	771	180.0	1234368.0	5036.0	-5689816.0
16	14	56	3	771	181.0	612328.0	5080.0	-5690211.0
16	14	56	3	771	183.0	-1018687.0	4799.0	-5688767.0
16	14	56	3	771	184.0	-1652291.0	4239.0	-5689423.0
16	14	56	3	772	185.0	-2014687.0	3652.0	-5689141.0
16	14	56	3	772	186.0	-2047994.0	3799.0	-5688511.0
16	14	56	3	772	187.0	-1589518.0	4089.0	-5689315.0
16	14	56	3	772	188.0	-957612.0	4303.0	-5690102.0
16	14	56	3	773	189.0	-586781.0	4512.0	-5689351.0
16	14	56	3	866	190.0	-276457.0	5069.0	-5688814.0
16	14	56	3	866	191.0	47660.0	5890.0	-5689814.0
16	14	56	3	866	192.0	353266.0	6759.0	-5690302.0
16	14	56	3	867	193.0	576196.0	7148.0	-5689472.0
16	14	56	3	867	194.0	649481.0	6737.0	-5688781.0
16	14	56	3	867	195.0	551929.0	6498.0	-5689144.0
16	14	56	3	867	196.0	236594.0	6611.0	-5690212.0
16	14	56	3	868	197.0	-52826.0	6819.0	-5689514.0
16	14	56	3	868	198.0	-131460.0	6769.0	-5688792.0
16	14	56	3	868	199.0	-108177.0	6634.0	-5688773.0
16	14	56	3	869	200.0	-93429.0	6931.0	-5689627.0
16	14	56	3	869	201.0	-25364.0	6736.0	-5689024.0
16	14	56	3	869	202.0	112614.0	6749.0	-5688340.0
16	14	56	3	870	203.0	254694.0	6645.0	-5689074.0
16	14	56	3	870	204.0	310444.0	6713.0	-5689952.0
16	14	56	3	870	206.0	213984.0	7278.0	-5688505.0
16	14	56	3	870	207.0	211291.0	6291.0	-5688960.0
16	14	56	3	871	208.0	254547.0	5999.0	-5690037.0
16	14	56	3	871	209.0	290808.0	6326.0	-5689427.0
16	14	56	3	871	210.0	287403.0	6388.0	-5688657.0
16	14	56	3	872	211.0	264403.0	6708.0	-5688637.0
16	14	56	3	872	212.0	245316.0	6611.0	-5689837.0
16	14	56	3	872	213.0	220879.0	6520.0	-5689387.0
16	14	56	3	872	214.0	177484.0	8321.0	-5688567.0
16	14	56	3	873	215.0	120507.0	8724.0	-5688527.0
16	14	56	3	873	216.0	71486.0	9029.0	-5689849.0
16	14	56	3	873	217.0	37393.0	9011.0	-5689517.0
16	14	56	3	874	218.0	22156.0	8729.0	-5688704.0
16	14	56	3	874	219.0	25652.0	8608.0	-5688979.0
16	14	56	3	874	220.0	51931.0	8673.0	-5690253.0
16	14	56	3	874	221.0	75588.0	8326.0	-5689769.0
16	14	56	3	875	222.0	70360.0	8273.0	-5688926.0
16	14	56	3	875	223.0	54270.0	7851.0	-5689068.0
16	14	56	3	875	224.0	39901.0	7808.0	-5690384.0
16	14	56	3	876	225.0	17995.0	8281.0	-5690006.0
16	14	56	3	876	226.0	-16851.0	8446.0	-5689159.0
16	14	56	3	876	228.0	-27019.0	7951.0	-5689696.0
16	14	56	3	876	236.0	287523.0	8391.0	-5689795.0
16	14	56	3	877	237.0	257054.0	7299.0	-5689686.0
16	14	56	3	877	238.0	227881.0	7370.0	-5688857.0
16	14	56	3	877	239.0	194596.0	7884.0	-5688594.0
16	14	56	3	878	240.0	159180.0	7931.0	-5689976.0
16	14	56	3	971	241.0	133405.0	7955.0	-5689816.0
16	14	56	3	972	242.0	116698.0	8194.0	-5689006.0
16	14	56	3	972	243.0	92313.0	9497.0	-5688468.0
16	14	56	3	973	244.0	55258.0	9194.0	-5689734.0
16	14	56	3	973	245.0	30067.0	9164.0	-5689908.0
16	14	56	3	973	246.0	11168.0	10509.0	-5689162.0
16	14	56	3	974	247.0	-11051.0	10707.0	-5688458.0
16	14	56	3	974	248.0	-27413.0	11289.0	-5689191.0
16	14	56	3	975	249.0	-42719.0	11968.0	-5690023.0
16	14	56	3	975	250.0	-61856.0	12289.0	-5689376.0
16	14	56	3	975	251.0	-75003.0	12981.0	-5688845.0
16	14	56	3	976	252.0	-65479.0	12708.0	-5690072.0
16	14	56	3	976	253.0	-51307.0	13078.0	-5690182.0
16	14	56	3	976	254.0	-23660.0	14216.0	-5689434.0
16	14	56	3	977	255.0	21236.0	15996.0	-5688887.0
16	14	56	3	977	0.0	61462.0	17063.0	-5690279.0
16	14	56	3	977	1.0	88114.0	18099.0	-5690447.0
16	14	56	3	977	2.0	94198.0	19091.0	-5689739.0
16	14	56	3	978	3.0	95739.0	19436.0	-5688949.0
16	14	56	3	978	4.0	110751.0	20443.0	-5689784.0
16	14	56	3	978	5.0	131279.0	22734.0	-5690589.0
16	14	56	3	979	6.0	148306.0	25734.0	-5689929.0
16	14	56	3	979	7.0	146996.0	28246.0	-5689071.0
16	14	56	3	979	8.0	128445.0	30237.0	-5689476.0
16	14	56	3	980	9.0	95846.0	32406.0	-5690382.0
16	14	56	3	980	10.0	47170.0	35290.0	-5689797.0
16	14	56	3	980	11.0	-834.0	36909.0	-5689045.0
16	14	56	3	981	12.0	-35899.0	39030.0	-5689611.0
16	14	56	3	981	13.0	-52222.0	42113.0	-5690427.0
16	14	56	3	981	14.0	-54160.0	45136.0	-5689819.0
16	14	56	3	982	15.0	-47354.0	46643.0	-5689041.0
16	14	56	3	982	16.0	-37301.0	48831.0	-5689616.0
16	14	56	3	982	17.0	-36526.0	50501.0	-5690214.0
16	14	56	3	983	18.0	-34550.0	50966.0	-5689537.0
16	14	56	3	983	19.0	-21197.0	51934.0	-5688724.0
16	14	56	3	983	20.0	-5218.0	52908.0	-5688842.0
16	14	56	3	984	21.0	11094.0	55171.0	-5689967.0
16	14	56	3	984	22.0	25514.0	56556.0	-5689421.0
16	14	56	3	984	23.0	54447.0	57331.0	-5688681.0
16	14	56	3	984	24.0	81802.0	58170.0	-5688830.0
16	14	56	3	985	25.0	104735.0	58999.0	-5689520.0
16	14	56	3	985	26.0	127897.0	57803.0	-5688882.0
16	14	56	3	985	27.0	149589.0	57933.0	-5688827.0
16	14	56	3	986	28.0	165538.0	59319.0	-5690196.0
16	14	56	3	986	29.0	177016.0	59898.0	-5689789.0
16	14	56	3	986	30.0	199081.0	59817.0	-5689035.0
16	14	56	3	987	31.0	226571.0	59728.0	-5688666.0
16	14	56	3	987	32.0	246478.0	59006.0	-5689964.0
16	14	56	3	987	33.0	256438.0	58064.0	-5689914.0
16	14	56	3	988	34.0	259270.0	56573.0	-5689140.0
16	14	56	3	989	35.0	261866.0	55868.0	-5688751.0
16	14	56	3	989	36.0	259919.0	56258.0	-5690014.0
16	14	56	3	989	37.0	249401.0	55793.0	-5689977.0
16	14	56	3	990	38.0	232333.0	54433.0	-5689124.0
16	14	56	3	990	39.0	189048.0	53499.0	-5688646.0
16	14	56	3	991	40.0	129499.0	52564.0	-5689771.0
16	14	56	3	991	41.0	74759.0	50578.0	-5689954.0
16	14	56	3	991	42.0	50067.0	49390.0	-5689093.0
16	14	56	3	992	43.0	21771.0	49563.0	-5689087.0
16	14	56	3	992	44.0	-53577.0	48021.0	-5690070.0
16	14	56	3	992	45.0	-252162.0	46467.0	-5689605.0
16	14	56	3	993	46.0	-598973.0	45406.0	-5688746.0
16	14	56	3	993	47.0	-932053.0	43514.0	-5689135.0
16	14	56	3	994	48.0	-1139097.0	41144.0	-5690274.0
16	14	56	4	78	49.0	-883657.0	38764.0	-5689787.0
16	14	56	4	79	50.0	-47493.0	37554.0	-5689036.0
16	14	56	4	79	51.0	937331.0	37426.0	-5688728.0
16	14	56	4	79	52.0	1531187.0	35687.0	-5690015.0
16	14	56	4	80	53.0	1351653.0	33447.0	-5690114.0
16	14	56	4	80	54.0	643418.0	31219.0	-5689228.0
16	14	56	4	80	55.0	-28080.0	28966.0	-5688663.0
16	14	56	4	80	56.0	-415454.0	25851.0	-5689677.0
16	14	56	4	81	57.0	-541786.0	24041.0	-5689830.0
16	14	56	4	81	58.0	-505160.0	22769.0	-5689046.0
16	14	56	4	81	59.0	-404499.0	21279.0	-5688833.0
16	14	56	4	82	60.0	-286851.0	18993.0	-5690151.0
16	14	56	4	82	61.0	-230081.0	16973.0	-5690019.0
16	14	56	4	82	62.0	-233871.0	15152.0	-5689227.0
16	14	56	4	82	63.0	-266919.0	12628.0	-5689189.0
16	14	56	4	83	64.0	-299654.0	9876.0	-5690524.0
16	14	56	4	83	65.0	-318521.0	8583.0	-5690166.0
16	14	56	4	83	66.0	-289490.0	8309.0	-5689351.0
16	14	56	4	83	67.0	-204575.0	6731.0	-5688984.0
16	14	56	4	84	68.0	-100330.0	4549.0	-5690539.0
16	14	56	4	84	69.0	-58780.0	3501.0	-5690492.0
16	14	56	4	84	70.0	-59554.0	2193.0	-5689732.0
16	14	56	4	85	71.0	-45839.0	-874.0	-5689061.0
16	14	56	4	85	72.0	-34014.0	-2725.0	-5690212.0
16	14	56	4	85	73.0	-33499.0	-3685.0	-5690629.0
16	14	56	4	86	74.0	-61126.0	-5352.0	-5689944.0
16	14	56	4	86	75.0	-113011.0	-7339.0	-5689458.0
16	14	56	4	86	76.0	-156579.0	-8931.0	-5690772.0
16	14	56	4	86	77.0	-174257.0	-10733.0	-5690769.0
16	14	56	4	87	78.0	-178392.0	-13196.0	-5690062.0
16	14	56	4	87	79.0	-165932.0	-14466.0	-5689426.0
16	14	56	4	87	80.0	-125944.0	-14986.0	-5690551.0
16	14	56	4	87	81.0	-68613.0	-15128.0	-5690792.0
16	14	56	4	88	82.0	-10929.0	-16521.0	-5690107.0
16	14	56	4	88	83.0	37314.0	-17440.0	-5689334.0
16	14	56	4	88	84.0	72966.0	-18876.0	-5690217.0
16	14	56	4	89	85.0	99039.0	-20132.0	-5690882.0
16	14	56	4	89	86.0	142076.0	-22548.0	-5690229.0
16	14	56	4	89	87.0	188184.0	-23827.0	-5689446.0
16	14	56	4	90	88.0	222632.0	-24432.0	-5690185.0
16	14	56	4	90	89.0	245451.0	-23915.0	-5690947.0
16	14	56	4	90	90.0	268451.0	-23994.0	-5690302.0
16	14	56	4	91	91.0	294948.0	-25048.0	-5689552.0
16	14	56	4	91	92.0	316816.0	-25745.0	-5690227.0
16	14	56	4	91	93.0	325014.0	-27345.0	-5690947.0
16	14	56	4	192	94.0	315987.0	-28657.0	-5690327.0
16	14	56	4	192	95.0	299944.0	-28509.0	-5689654.0
16	14	56	4	192	96.0	285376.0	-27806.0	-5690793.0
16	14	56	4	193	97.0	284175.0	-28076.0	-5691207.0
16	14	56	4	193	98.0	285174.0	-28924.0	-5690500.0
16	14	56	4	193	99.0	271810.0	-29876.0	-5689665.0
16	14	56	4	193	100.0	230884.0	-30964.0	-5690156.0
16	14	56	4	194	101.0	159018.0	-32376.0	-5691252.0
16	14	56	4	194	102.0	77084.0	-32962.0	-5690646.0
16	14	56	4	194	103.0	27294.0	-32057.0	-5689827.0
16	14	56	4	195	104.0	-33200.0	-32491.0	-5690088.0
16	14	56	4	195	105.0	-124149.0	-32842.0	-5691187.0
16	14	56	4	195	106.0	-150497.0	-33487.0	-5690607.0
16	14	56	4	195	107.0	-79642.0	-33492.0	-5689898.0
16	14	56	4	196	108.0	-180.0	-34530.0	-5690235.0
16	14	56	4	196	109.0	54211.0	-35224.0	-5690647.0
16	14	56	4	196	110.0	120330.0	-34887.0	-5689979.0
16	14	56	4	197	111.0	146798.0	-33800.0	-5690083.0
16	14	56	4	197	112.0	100492.0	-33908.0	-5691227.0
16	14	56	4	197	113.0	74992.0	-34139.0	-5690628.0
16	14	56	4	197	114.0	112566.0	-33940.0	-5689866.0
16	14	56	4	197	115.0	169439.0	-33844.0	-5689839.0
16	14	56	4	198	116.0	128248.0	-34875.0	-5691045.0
16	14	56	4	198	117.0	73144.0	-34887.0	-5690580.0
16	14	56	4	198	118.0	99666.0	-33816.0	-5689805.0
16	14	56	4	198	119.0	150318.0	-32783.0	-5689717.0
16	14	56	4	199	120.0	172431.0	-32441.0	-5690962.0
16	14	56	4	199	121.0	181249.0	-31942.0	-5690576.0
16	14	56	4	199	122.0	206499.0	-31497.0	-5689781.0
16	14	56	4	199	123.0	232327.0	-32073.0	-5690119.0
16	14	56	4	200	124.0	239174.0	-32143.0	-5691254.0
16	14	56	4	200	125.0	218162.0	-31324.0	-5690687.0
16	14	56	4	200	126.0	191604.0	-29354.0	-5689905.0
16	14	56	4	200	127.0	169025.0	-29177.0	-5690218.0
16	14	56	4	201	128.0	144050.0	-28795.0	-5691308.0
16	14	56	4	201	129.0	119965.0	-28021.0	-5690760.0
16	14	56	4	201	130.0	91621.0	-27803.0	-5689956.0
16	14	56	4	201	131.0	68673.0	-27136.0	-5689551.0
16	14	56	4	202	132.0	40979.0	-25872.0	-5690861.0
16	14	56	4	202	133.0	4129.0	-25183.0	-5691005.0
16	14	56	4	202	134.0	-44548.0	-24509.0	-5690181.0
16	14	56	4	202	135.0	-104576.0	-23817.0	-5689861.0
16	14	56	4	203	136.0	-161856.0	-23119.0	-5691127.0
16	14	56	4	203	137.0	-217526.0	-22204.0	-5691099.0
16	14	56	4	203	138.0	-250352.0	-22211.0	-5690258.0
16	14	56	4	204	139.0	-258892.0	-21751.0	-5690097.0
16	14	56	4	204	140.0	-248832.0	-20642.0	-5691259.0
16	14	56	4	204	141.0	-229473.0	-19571.0	-5690982.0
16	14	56	4	205	142.0	-197669.0	-18857.0	-5690146.0
16	14	56	4	205	143.0	-151980.0	-17199.0	-5689943.0
16	14	56	4	205	144.0	-104846.0	-16231.0	-5691285.0
16	14	56	4	206	145.0	-64282.0	-15854.0	-5691146.0
16	14	56	4	206	146.0	-22156.0	-15588.0	-5690309.0
16	14	56	4	206	147.0	20296.0	-13661.0	-5689718.0
16	14	56	4	207	148.0	52522.0	-12774.0	-5690840.0
16	14	56	4	207	149.0	62273.0	-11950.0	-5691167.0
16	14	56	4	207	150.0	46326.0	-10504.0	-5690397.0
16	14	56	4	208	151.0	12393.0	-10000.0	-5689705.0
16	14	56	4	208	152.0	-33406.0	-9636.0	-5690497.0
16	14	56	4	208	153.0	-77082.0	-9955.0	-5691119.0
16	14	56	4	310	154.0	-103916.0	-9515.0	-5690377.0
16	14	56	4	311	155.0	-113599.0	-8690.0	-5689941.0
16	14	56	4	311	156.0	-108436.0	-6962.0	-5691168.0
16	14	56	4	311	157.0	-103257.0	-6490.0	-5691179.0
16	14	56	4	312	158.0	-106794.0	-5974.0	-5690426.0
16	14	56	4	312	159.0	-105571.0	-5029.0	-5689823.0
16	14	56	4	312	160.0	-99851.0	-4754.0	-5691046.0
16	14	56	4	312	161.0	-88246.0	-4917.0	-5691364.0
16	14	56	4	313	162.0	-74912.0	-4327.0	-5690627.0
16	14	56	4	313	163.0	-64021.0	-2714.0	-5689846.0
16	14	56	4	313	164.0	-52070.0	-2028.0	-5690668.0
16	14	56	4	314	165.0	-28427.0	-1246.0	-5691294.0
16	14	56	4	314	166.0	-2270.0	-1055.0	-5690626.0
16	14	56	4	314	167.0	20618.0	-1013.0	-5689812.0
16	14	56	4	315	168.0	36829.0	-1295.0	-5690474.0
16	14	56	4	315	169.0	40524.0	-1445.0	-5691126.0
16	14	56	4	315	170.0	31980.0	-1154.0	-5690486.0
16	14	56	4	315	171.0	16708.0	506.0	-5689782.0
16	14	56	4	316	172.0	-2311.0	551.0	-5690785.0
16	14	56	4	316	173.0	-15364.0	1035.0	-5691287.0
16	14	56	4	316	174.0	-22209.0	1288.0	-5690606.0
16	14	56	4	317	175.0	-26709.0	434.0	-5689874.0
16	14	56	4	317	176.0	-30497.0	-377.0	-5690781.0
16	14	56	4	317	177.0	-32317.0	-51.0	-5691196.0
16	14	56	4	317	178.0	-18762.0	1171.0	-5690509.0
16	14	56	4	317	179.0	7223.0	1656.0	-5689684.0
16	14	56	4	318	180.0	37954.0	1519.0	-5690072.0
16	14	56	4	318	181.0	70214.0	1085.0	-5690944.0
16	14	56	4	318	182.0	90888.0	1098.0	-5690339.0
16	14	56	4	319	183.0	95551.0	776.0	-5689566.0
16	14	56	4	319	184.0	89496.0	807.0	-5690130.0
16	14	56	4	319	185.0	82766.0	864.0	-5691006.0
16	14	56	4	319	186.0	75903.0	791.0	-5690381.0
16	14	56	4	320	187.0	69748.0	690.0	-5689688.0
16	14	56	4	320	188.0	64308.0	833.0	-5690417.0
16	14	56	4	320	189.0	63123.0	909.0	-5690997.0
16	14	56	4	321	190.0	77330.0	334.0	-5690273.0
16	14	56	4	321	191.0	100044.0	-596.0	-5689609.0
16	14	56	4	321	192.0	119542.0	-884.0	-5690441.0
16	14	56	4	322	193.0	123027.0	-1000.0	-5691126.0
16	14	56	4	322	194.0	110210.0	-989.0	-5690376.0
16	14	56	4	322	195.0	87429.0	-877.0	-5689699.0
16	14	56	4	323	196.0	65600.0	-318.0	-5690526.0
16	14	56	4	323	197.0	52542.0	606.0	-5691309.0
16	14	56	4	323	198.0	44939.0	-412.0	-5690568.0
16	14	56	4	324	199.0	34753.0	69.0	-5689865.0
16	14	56	4	324	200.0	16164.0	20.0	-5690130.0
16	14	56	4	324	201.0	-5794.0	374.0	-5691318.0
16	14	56	4	325	202.0	-25861.0	-82.0	-5690659.0
16	14	56	4	325	203.0	-33942.0	-56.0	-5690034.0
16	14	56	4	325	204.0	-29109.0	-26.0	-5690806.0
16	14	56	4	326	205.0	-22137.0	-1157.0	-5691532.0
16	14	56	4	326	206.0	-11847.0	-2269.0	-5690754.0
16	14	56	4	431	207.0	3887.0	-2172.0	-5690119.0
16	14	56	4	431	208.0	19330.0	-2046.0	-5690901.0
16	14	56	4	431	209.0	27921.0	-1004.0	-5691454.0
16	14	56	4	432	210.0	26786.0	-946.0	-5690642.0
16	14	56	4	432	211.0	19813.0	-552.0	-5689938.0
16	14	56	4	432	212.0	11637.0	-431.0	-5690282.0
16	14	56	4	433	213.0	12238.0	-1522.0	-5691384.0
16	14	56	4	433	214.0	15588.0	-2062.0	-5690685.0
16	14	56	4	433	215.0	17349.0	-1298.0	-5690014.0
16	14	56	4	433	216.0	13240.0	-1209.0	-5690628.0
16	14	56	4	434	217.0	7092.0	-1110.0	-5691224.0
16	14	56	4	434	218.0	3248.0	-1487.0	-5690459.0
16	14	56	4	434	219.0	-2266.0	-1195.0	-5689874.0
16	14	56	4	434	220.0	-190.0	-1536.0	-5690770.0
16	14	56	4	434	221.0	9700.0	-2446.0	-5691382.0
16	14	56	4	435	222.0	22312.0	-1717.0	-5690624.0
16	14	56	4	435	223.0	30526.0	-551.0	-5689957.0
16	14	56	4	435	224.0	37403.0	-266.0	-5690519.0
16	14	56	4	435	225.0	43071.0	-214.0	-5691242.0
16	14	56	4	436	226.0	55658.0	-675.0	-5690482.0
16	14	56	4	436	227.0	62436.0	-806.0	-5689717.0
16	14	56	4	436	228.0	55674.0	-1194.0	-5690182.0
16	14	56	4	436	229.0	45852.0	-1451.0	-5691029.0
16	14	56	4	437	230.0	27538.0	-974.0	-5690359.0
16	14	56	4	437	231.0	8052.0	106.0	-5689594.0
16	14	56	4	437	232.0	-3956.0	328.0	-5690204.0
16	14	56	4	437	233.0	-3436.0	298.0	-5691207.0
16	14	56	4	438	234.0	10036.0	108.0	-5690549.0
16	14	56	4	438	235.0	35194.0	-41.0	-5689881.0
16	14	56	4	438	236.0	77639.0	289.0	-5690749.0
16	14	56	4	439	237.0	112564.0	531.0	-5691225.0
16	14	56	4	439	238.0	122936.0	631.0	-5690531.0
16	14	56	4	439	239.0	104492.0	363.0	-5689755.0
16	14	56	4	439	240.0	58704.0	505.0	-5690322.0
16	14	56	4	440	241.0	-18343.0	990.0	-5691182.0
16	14	56	4	440	242.0	-113206.0	880.0	-5690556.0
16	14	56	4	440	243.0	-209159.0	94.0	-5689707.0
16	14	56	4	441	244.0	-278261.0	-166.0	-5689976.0
16	14	56	4	441	245.0	-302232.0	192.0	-5690914.0
16	14	56	4	441	246.0	-287101.0	616.0	-5690394.0
16	14	56	4	442	247.0	-233942.0	641.0	-5689609.0
16	14	56	4	442	248.0	-157907.0	1149.0	-5690325.0
16	14	56	4	442	249.0	-71760.0	2288.0	-5691059.0
16	14	56	4	443	250.0	9738.0	2293.0	-5690444.0
16	14	56	4	443	251.0	88276.0	2374.0	-5689713.0
16	14	56	4	444	252.0	168479.0	3182.0	-5690576.0
16	14	56	4	444	253.0	252270.0	2720.0	-5691185.0
16	14	56	4	444	254.0	333818.0	2618.0	-5690542.0
16	14	56	4	445	255.0	411906.0	2898.0	-5689798.0
16	14	56	4	445	0.0	481278.0	2736.0	-5690552.0
16	14	56	4	445	1.0	549536.0	2659.0	-5691328.0
16	14	56	4	446	2.0	631482.0	2126.0	-5690666.0
16	14	56	4	446	3.0	733893.0	1787.0	-5689836.0
16	14	56	4	446	4.0	878450.0	1766.0	-5689910.0
16	14	56	4	447	5.0	1067069.0	2738.0	-5691136.0
16	14	56	4	447	6.0	1211874.0	3698.0	-5690694.0
16	14	56	4	447	7.0	1078830.0	4139.0	-5689894.0
16	14	56	4	448	8.0	536806.0	4038.0	-5690176.0
16	14	56	4	448	9.0	-202355.0	3385.0	-5691316.0
16	14	56	4	449	10.0	-1130701.0	2682.0	-5690646.0
16	14	56	4	449	11.0	-1953209.0	3687.0	-5689825.0
16	14	56	4	449	12.0	-2368246.0	4604.0	-5690193.0
16	14	56	4	450	13.0	-2159651.0	5094.0	-5690747.0
16	14	56	4	450	14.0	-1314658.0	5113.0	-5690157.0
16	14	56	4	450	15.0	-207177.0	5421.0	-5689912.0
16	14	56	4	451	16.0	586173.0	5698.0	-5691241.0
16	14	56	4	451	17.0	911263.0	4711.0	-5691012.0
16	14	56	4	451	18.0	1168411.0	4284.0	-5690311.0
16	14	56	4	452	19.0	1482493.0	4681.0	-5689929.0
16	14	56	4	452	20.0	1489060.0	5866.0	-5691311.0
16	14	56	4	453	21.0	1077278.0	6363.0	-5691174.0
16	14	56	4	453	22.0	399348.0	6303.0	-5690314.0
16	14	56	4	453	23.0	-418337.0	6836.0	-5689582.0
16	14	56	4	557	24.0	-1202045.0	6567.0	-5690407.0
16	14	56	4	557	25.0	-1770677.0	6107.0	-5690876.0
16	14	56	4	558	26.0	-2097480.0	7078.0	-5690054.0
16	14	56	4	558	27.0	-2007662.0	7813.0	-5689569.0
16	14	56	4	558	28.0	-1463924.0	7592.0	-5690826.0
16	14	56	4	559	29.0	-851005.0	7983.0	-5691064.0
16	14	56	4	559	30.0	-487091.0	7864.0	-5690321.0
16	14	56	4	559	31.0	-159959.0	7371.0	-5690069.0
16	14	56	4	559	32.0	188621.0	6429.0	-5691704.0
16	14	56	4	560	33.0	479320.0	6538.0	-5691786.0
16	14	56	4	560	34.0	667212.0	7129.0	-5690977.0
16	14	56	4	560	35.0	702334.0	8474.0	-5690306.0
16	14	56	4	561	36.0	483897.0	8731.0	-5691058.0
16	14	56	4	561	37.0	37533.0	8545.0	-5691799.0
16	14	56	4	561	38.0	-301911.0	8713.0	-5690993.0
16	14	56	4	561	39.0	-321066.0	7786.0	-5690470.0
16	14	56	4	562	40.0	-160100.0	7171.0	-5691467.0
16	14	56	4	562	41.0	20679.0	7967.0	-5691794.0
16	14	56	4	562	42.0	176499.0	9083.0	-5690999.0
16	14	56	4	562	43.0	301309.0	9436.0	-5690529.0
16	14	56	4	563	44.0	368375.0	9594.0	-5691679.0
16	14	56	4	563	45.0	351751.0	9934.0	-5692049.0
16	14	56	4	563	46.0	273997.0	9597.0	-5691196.0
16	14	56	4	563	47.0	195349.0	9044.0	-5690649.0
16	14	56	4	564	48.0	161506.0	8878.0	-5691616.0
16	14	56	4	564	49.0	170340.0	9553.0	-5691902.0
16	14	56	4	564	50.0	186567.0	9598.0	-5691058.0
16	14	56	4	565	51.0	197703.0	10098.0	-5690413.0
16	14	56	4	565	52.0	201491.0	10335.0	-5691234.0
16	14	56	4	565	53.0	199534.0	10684.0	-5691759.0
16	14	56	4	565	54.0	187263.0	9898.0	-5690991.0
16	14	56	4	566	55.0	185894.0	9204.0	-5690296.0
16	14	56	4	566	56.0	209357.0	9649.0	-5690890.0
16	14	56	4	566	57.0	240626.0	10813.0	-5691662.0
16	14	56	4	567	58.0	252681.0	11289.0	-5690968.0
16	14	56	4	567	59.0	231318.0	11236.0	-5690418.0
16	14	56	4	567	60.0	178466.0	10884.0	-5691416.0
16	14	56	4	568	61.0	102149.0	11114.0	-5691673.0
16	14	56	4	568	62.0	33197.0	9829.0	-5690854.0
16	14	56	4	568	63.0	-11922.0	9858.0	-5690295.0
16	14	56	4	569	64.0	-41157.0	11061.0	-5691439.0
16	14	56	4	569	65.0	-49964.0	11299.0	-5691732.0
16	14	56	4	569	66.0	-31444.0	11885.0	-5690955.0
16	14	56	4	570	67.0	16474.0	11751.0	-5690187.0
16	14	56	4	570	68.0	62421.0	11601.0	-5690965.0
16	14	56	4	570	69.0	92892.0	10601.0	-5691829.0
16	14	56	4	570	70.0	113136.0	9549.0	-5691154.0
16	14	56	4	571	71.0	130755.0	9736.0	-5690354.0
16	14	56	4	571	72.0	152589.0	10531.0	-5690714.0
16	14	56	4	571	73.0	152336.0	10968.0	-5691797.0
16	14	56	4	571	74.0	139406.0	11139.0	-5691217.0
16	14	56	4	572	75.0	128234.0	11248.0	-5690453.0
16	14	56	4	572	76.0	115034.0	10858.0	-5690828.0
16	14	56	4	572	77.0	99531.0	10158.0	-5691988.0
16	14	56	4	686	78.0	82548.0	10001.0	-5691476.0
16	14	56	4	686	79.0	53208.0	10621.0	-5690697.0
16	14	56	4	687	80.0	10846.0	11556.0	-5691289.0
16	14	56	4	687	81.0	-29124.0	11839.0	-5692159.0
16	14	56	4	687	82.0	-43326.0	11808.0	-5691546.0
16	14	56	4	688	83.0	-31311.0	11951.0	-5690713.0
16	14	56	4	688	84.0	-19070.0	11254.0	-5690691.0
16	14	56	4	688	85.0	-24249.0	10548.0	-5691986.0
16	14	56	4	688	86.0	-39976.0	10882.0	-5691680.0
16	14	56	4	689	87.0	-57874.0	12002.0	-5690848.0
16	14	56	4	689	88.0	-77522.0	12499.0	-5690961.0
16	14	56	4	689	89.0	-91274.0	12904.0	-5692132.0
16	14	56	4	689	90.0	-85199.0	13248.0	-5691703.0
16	14	56	4	690	91.0	-68042.0	13649.0	-5690898.0
16	14	56	4	690	92.0	-32306.0	13596.0	-5691182.0
16	14	56	4	690	93.0	9381.0	14337.0	-5692455.0
16	14	56	4	691	94.0	37763.0	16251.0	-5692016.0
16	14	56	4	691	95.0	52466.0	17328.0	-5691189.0
16	14	56	4	691	96.0	42986.0	17922.0	-5691164.0
16	14	56	4	692	97.0	22909.0	18967.0	-5692506.0
16	14	56	4	692	98.0	-3459.0	20194.0	-5692189.0
16	14	56	4	692	99.0	-21422.0	21289.0	-5691350.0
16	14	56	4	692	100.0	-29290.0	21751.0	-5691117.0
16	14	56	4	693	101.0	-32335.0	23738.0	-5692314.0
16	14	56	4	693	102.0	-29941.0	26659.0	-5691998.0
16	14	56	4	693	103.0	-26645.0	28561.0	-5691176.0
16	14	56	4	693	104.0	-33046.0	31278.0	-5690734.0
16	14	56	4	694	105.0	-44661.0	33661.0	-5692164.0
16	14	56	4	694	106.0	-45340.0	35859.0	-5692267.0
16	14	56	4	694	107.0	-29388.0	37356.0	-5691496.0
16	14	56	4	694	108.0	1625.0	39591.0	-5691187.0
16	14	56	4	695	109.0	46138.0	42881.0	-5692494.0
16	14	56	4	695	110.0	93841.0	45497.0	-5692294.0
16	14	56	4	695	111.0	133070.0	47128.0	-5691511.0
16	14	56	4	696	112.0	155812.0	49009.0	-5691112.0
16	14	56	4	696	113.0	165252.0	50605.0	-5692481.0
16	14	56	4	696	114.0	158816.0	51523.0	-5692368.0
16	14	56	4	696	115.0	158226.0	51749.0	-5691609.0
16	14	56	4	697	116.0	175601.0	53578.0	-5690973.0
16	14	56	4	697	117.0	192156.0	55881.0	-5692308.0
16	14	56	4	697	118.0	191479.0	56251.0	-5692647.0
16	14	56	4	698	119.0	179954.0	57114.0	-5691912.0
16	14	56	4	698	120.0	160303.0	57916.0	-5691229.0
16	14	56	4	698	121.0	127713.0	58206.0	-5692401.0
16	14	56	4	698	122.0	97002.0	57333.0	-5692829.0
16	14	56	4	699	123.0	83010.0	57887.0	-5692148.0
16	14	56	4	699	124.0	81039.0	58935.0	-5691479.0
16	14	56	4	699	125.0	84175.0	59320.0	-5692576.0
16	14	56	4	700	126.0	102955.0	59531.0	-5692954.0
16	14	56	4	700	127.0	130861.0	59471.0	-5692255.0
16	14	56	4	700	128.0	149674.0	58595.0	-5691905.0
16	14	56	4	701	129.0	156848.0	56904.0	-5693322.0
16	14	56	4	701	130.0	160818.0	55999.0	-5693061.0
16	14	56	4	701	131.0	163063.0	56633.0	-5692312.0
16	14	56	4	701	132.0	167381.0	56095.0	-5691634.0
16	14	56	4	702	133.0	179759.0	55313.0	-5692825.0
16	14	56	4	702	134.0	193979.0	54636.0	-5693062.0
16	14	56	4	702	135.0	183118.0	53556.0	-5692337.0
16	14	56	4	702	136.0	154724.0	52164.0	-5691647.0
16	14	56	4	703	137.0	114066.0	50489.0	-5692574.0
16	14	56	4	703	138.0	61633.0	49087.0	-5692864.0
16	14	56	4	816	139.0	-1319.0	47728.0	-5692155.0
16	14	56	4	817	140.0	-73864.0	46765.0	-5691479.0
16	14	56	4	817	141.0	-152870.0	46303.0	-5692242.0
16	14	56	4	817	142.0	-308049.0	45336.0	-5692297.0
16	14	56	4	817	143.0	-586132.0	43843.0	-5691602.0
16	14	56	4	818	144.0	-943390.0	41948.0	-5692029.0
16	14	56	4	818	145.0	-1148871.0	39694.0	-5692911.0
16	14	56	4	818	146.0	-966664.0	39143.0	-5692161.0
16	14	56	4	818	147.0	-279348.0	37699.0	-5691446.0
16	14	56	4	819	148.0	736876.0	35406.0	-5691646.0
16	14	56	4	819	149.0	1425871.0	33956.0	-5692892.0
16	14	56	4	819	150.0	1446393.0	32107.0	-5692339.0
16	14	56	4	819	151.0	886715.0	30305.0	-5691551.0
16	14	56	4	820	152.0	246107.0	27709.0	-5691776.0
16	14	56	4	820	153.0	-159746.0	25918.0	-5692848.0
16	14	56	4	820	154.0	-338534.0	24849.0	-5692252.0
16	14	56	4	820	155.0	-340642.0	24059.0	-5691526.0
16	14	56	4	821	156.0	-255478.0	21747.0	-5692024.0
16	14	56	4	821	157.0	-139512.0	19873.0	-5692847.0
16	14	56	4	821	158.0	-47733.0	18293.0	-5692185.0
16	14	56	4	821	159.0	-32314.0	15088.0	-5691462.0
16	14	56	4	822	160.0	-77165.0	12503.0	-5692091.0
16	14	56	4	822	161.0	-127126.0	11546.0	-5692772.0
16	14	56	4	822	162.0	-152824.0	10359.0	-5692094.0
16	14	56	4	822	163.0	-140634.0	9144.0	-5691294.0
16	14	56	4	823	164.0	-90274.0	8174.0	-5691386.0
16	14	56	4	823	165.0	-18390.0	6864.0	-5692563.0
16	14	56	4	823	166.0	38149.0	4840.0	-5692147.0
16	14	56	4	824	167.0	59959.0	2099.0	-5691310.0
16	14	56	4	824	168.0	79478.0	340.0	-5691615.0
16	14	56	4	824	169.0	116990.0	-751.0	-5692576.0
16	14	56	4	825	170.0	128303.0	-1159.0	-5692034.0
16	14	56	4	825	171.0	103299.0	-3277.0	-5691231.0
16	14	56	4	825	172.0	49334.0	-4317.0	-5691764.0
16	14	56	4	826	173.0	-4643.0	-6100.0	-5692809.0
16	14	56	4	826	174.0	-51701.0	-8142.0	-5692258.0
16	14	56	4	827	175.0	-87732.0	-9807.0	-5691449.0
16	14	56	4	827	176.0	-110097.0	-10261.0	-5691888.0
16	14	56	4	827	177.0	-123800.0	-11276.0	-5692735.0
16	14	56	4	828	178.0	-124737.0	-12470.0	-5692123.0
16	14	56	4	828	179.0	-110604.0	-13409.0	-5691252.0
16	14	56	4	829	180.0	-89459.0	-14403.0	-5691589.0
16	14	56	4	829	181.0	-65310.0	-16266.0	-5692706.0
16	14	56	4	830	182.0	-44436.0	-17753.0	-5692170.0
16	14	56	4	830	183.0	-25651.0	-18232.0	-5691358.0
16	14	56	4	830	184.0	-10041.0	-18460.0	-5691350.0
16	14	56	4	831	185.0	2468.0	-19288.0	-5692796.0
16	14	56	4	831	186.0	20832.0	-20342.0	-5692431.0
16	14	56	4	831	187.0	48473.0	-21329.0	-5691663.0
16	14	56	4	832	188.0	88858.0	-22290.0	-5691943.0
16	14	56	4	832	189.0	134328.0	-24079.0	-5693004.0
16	14	56	4	832	190.0	165237.0	-25429.0	-5692427.0
16	14	56	4	833	191.0	189768.0	-26311.0	-5691677.0
16	14	56	4	833	192.0	215092.0	-27205.0	-5692316.0
16	14	56	4	833	193.0	241984.0	-27591.0	-5693358.0
16	14	56	4	834	194.0	253283.0	-28022.0	-5692691.0
16	14	56	4	834	195.0	251546.0	-27610.0	-5691886.0
16	14	56	4	835	196.0	252538.0	-28233.0	-5691482.0
16	14	56	4	835	197.0	252455.0	-29407.0	-5692962.0
16	14	56	4	835	198.0	247611.0	-29119.0	-5692882.0
16	14	56	4	836	199.0	229711.0	-29591.0	-5692129.0
16	14	56	4	836	200.0	194628.0	-30008.0	-5691826.0
16	14	56	4	836	201.0	152053.0	-30841.0	-5692741.0
16	14	56	4	837	202.0	119727.0	-31484.0	-5692260.0
16	14	56	4	837	203.0	95999.0	-31551.0	-5691645.0
16	14	56	4	837	204.0	72731.0	-32953.0	-5692516.0
16	14	56	4	838	205.0	52348.0	-33732.0	-5692872.0
16	14	56	4	838	206.0	38861.0	-33912.0	-5692096.0
16	14	56	4	839	207.0	30098.0	-33282.0	-5691627.0
16	14	56	4	839	208.0	26092.0	-32771.0	-5692734.0
16	14	56	4	840	209.0	22731.0	-32629.0	-5692926.0
16	14	56	4	841	210.0	12285.0	-32799.0	-5692137.0
16	14	56	4	841	211.0	-10284.0	-33200.0	-5691526.0
16	14	56	4	842	212.0	-34820.0	-34280.0	-5692397.0
16	14	56	4	842	213.0	-53228.0	-33537.0	-5693029.0
16	14	56	4	842	214.0	-66102.0	-31796.0	-5692218.0
16	14	56	4	843	215.0	-75219.0	-31609.0	-5691601.0
16	14	56	4	924	216.0	-78487.0	-31217.0	-5692312.0
16	14	56	4	924	217.0	-84811.0	-30698.0	-5692997.0
16	14	56	4	924	218.0	-85200.0	-30924.0	-5692171.0
16	14	56	4	924	219.0	-65647.0	-31787.0	-5691722.0
16	14	56	4	925	220.0	-30792.0	-32038.0	-5692939.0
16	14	56	4	925	221.0	8094.0	-31131.0	-5693164.0
16	14	56	4	925	222.0	46238.0	-29174.0	-5692332.0
16	14	56	4	926	223.0	80949.0	-28663.0	-5691712.0
16	14	56	4	926	224.0	106886.0	-28096.0	-5692396.0
16	14	56	4	926	225.0	114794.0	-26931.0	-5693032.0
16	14	56	4	926	226.0	99957.0	-26979.0	-5692246.0
16	14	56	4	927	227.0	69968.0	-28092.0	-5691557.0
16	14	56	4	927	228.0	41898.0	-27239.0	-5692338.0
16	14	56	4	927	229.0	19765.0	-25375.0	-5693034.0
16	14	56	4	927	230.0	7578.0	-24293.0	-5692289.0
16	14	56	4	928	231.0	12603.0	-23727.0	-5691582.0
16	14	56	4	928	232.0	42972.0	-23188.0	-5692302.0
16	14	56	4	928	233.0	69663.0	-22609.0	-5693127.0
16	14	56	4	929	234.0	60993.0	-22037.0	-5692424.0
16	14	56	4	929	235.0	32241.0	-20988.0	-5691733.0
16	14	56	4	929	236.0	-5864.0	-20132.0	-5692517.0
16	14	56	4	930	237.0	-42239.0	-19426.0	-5693186.0
16	14	56	4	930	238.0	-69874.0	-18788.0	-5692455.0
16	14	56	4	930	239.0	-90444.0	-17817.0	-5691831.0
16	14	56	4	931	240.0	-104514.0	-16768.0	-5693043.0
16	14	56	4	931	241.0	-112029.0	-16182.0	-5693564.0
16	14	56	4	931	242.0	-116775.0	-16352.0	-5692811.0
16	14	56	4	932	243.0	-112614.0	-15728.0	-5691977.0
16	14	56	4	932	244.0	-99387.0	-14982.0	-5692252.0
16	14	56	4	932	245.0	-85558.0	-13845.0	-5693521.0
16	14	56	4	933	246.0	-76884.0	-13016.0	-5693058.0
16	14	56	4	933	247.0	-71641.0	-12011.0	-5692236.0
16	14	56	4	933	248.0	-60704.0	-10784.0	-5692639.0
16	14	56	4	933	249.0	-49822.0	-10234.0	-5693796.0
16	14	56	4	934	250.0	-45325.0	-8605.0	-5693274.0
16	14	56	4	934	251.0	-45030.0	-7644.0	-5692449.0
16	14	56	4	935	252.0	-42661.0	-6814.0	-5692765.0
16	14	56	4	935	253.0	-41421.0	-5962.0	-5693815.0
16	14	56	4	935	254.0	-31922.0	-5659.0	-5693294.0
16	14	56	4	936	255.0	-12588.0	-4976.0	-5692461.0
16	14	56	4	936	0.0	2476.0	-4724.0	-5692638.0
16	14	56	4	936	1.0	5305.0	-5222.0	-5693665.0
16	14	56	4	937	2.0	4346.0	-4576.0	-5693180.0
16	14	56	4	937	3.0	7395.0	-3856.0	-5692331.0
16	14	56	4	937	4.0	17646.0	-2769.0	-5692505.0
16	14	56	4	938	5.0	40768.0	-2778.0	-5693583.0
16	14	56	4	938	6.0	67169.0	-2506.0	-5693091.0
16	14	56	4	939	7.0	90013.0	-1777.0	-5692296.0
16	14	56	5	30	8.0	102194.0	-1692.0	-5692003.0
16	14	56	5	30	9.0	94894.0	-1739.0	-5693154.0
16	14	56	5	30	10.0	75145.0	-545.0	-5692921.0
16	14	56	5	31	11.0	56434.0	203.0	-5692135.0
16	14	56	5	31	12.0	54943.0	159.0	-5692381.0
16	14	56	5	31	13.0	56194.0	-27.0	-5693396.0
16	14	56	5	31	14.0	61635.0	403.0	-5692823.0
16	14	56	5	32	15.0	60709.0	263.0	-5692051.0
16	14	56	5	32	16.0	41478.0	-419.0	-5691955.0
16	14	56	5	32	17.0	9267.0	-342.0	-5693207.0
16	14	56	5	33	18.0	-25571.0	969.0	-5692784.0
16	14	56	5	33	19.0	-61542.0	1398.0	-5692008.0
16	14	56	5	33	20.0	-88969.0	1779.0	-5691692.0
16	14	56	5	34	21.0	-104287.0	2011.0	-5693159.0
16	14	56	5	34	22.0	-108299.0	1424.0	-5692966.0
16	14	56	5	34	23.0	-99356.0	219.0	-5692239.0
16	14	56	5	35	24.0	-71809.0	-688.0	-5691820.0
16	14	56	5	35	25.0	-33843.0	-6.0	-5693103.0
16	14	56	5	35	26.0	-4805.0	690.0	-5692935.0
16	14	56	5	35	27.0	7383.0	467.0	-5692199.0
16	14	56	5	36	28.0	10528.0	688.0	-5691969.0
16	14	56	5	36	29.0	8834.0	1219.0	-5692744.0
16	14	56	5	36	30.0	13286.0	759.0	-5692207.0
16	14	56	5	36	31.0	28004.0	-636.0	-5691747.0
16	14	56	5	37	32.0	41401.0	-739.0	-5692829.0
16	14	56	5	37	33.0	52050.0	303.0	-5692837.0
16	14	56	5	37	34.0	53174.0	759.0	-5692016.0
16	14	56	5	37	35.0	51496.0	576.0	-5691401.0
16	14	56	5	38	36.0	51599.0	838.0	-5692354.0
16	14	56	5	38	37.0	64704.0	824.0	-5692831.0
16	14	56	5	38	38.0	83661.0	-171.0	-5691999.0
16	14	56	5	39	39.0	112844.0	-858.0	-5691436.0
16	14	56	5	39	40.0	146284.0	-487.0	-5692409.0
16	14	56	5	39	41.0	156891.0	5.0	-5692915.0
16	14	56	5	40	42.0	151041.0	-319.0	-5692096.0
16	14	56	5	40	43.0	139059.0	-772.0	-5691765.0
16	14	56	5	41	44.0	126288.0	-295.0	-5692886.0
16	14	56	5	41	45.0	106936.0	-691.0	-5692820.0
16	14	56	5	41	46.0	82088.0	-1842.0	-5691975.0
16	14	56	5	41	47.0	57404.0	-1346.0	-5691478.0
16	14	56	5	42	48.0	33209.0	-354.0	-5692577.0
16	14	56	5	42	49.0	12726.0	3.0	-5692920.0
16	14	56	5	42	50.0	-979.0	347.0	-5692087.0
16	14	56	5	43	51.0	-7286.0	-66.0	-5691545.0
16	14	56	5	43	52.0	-10131.0	-387.0	-5692598.0
16	14	56	5	43	53.0	-18777.0	-1275.0	-5692904.0
16	14	56	5	44	54.0	-36786.0	-1406.0	-5692108.0
16	14	56	5	44	55.0	-59614.0	-955.0	-5691497.0
16	14	56	5	44	56.0	-86899.0	298.0	-5692588.0
16	14	56	5	45	57.0	-116706.0	-32.0	-5693038.0
16	14	56	5	45	58.0	-139972.0	-205.0	-5692307.0
16	14	56	5	45	59.0	-137113.0	-557.0	-5691767.0
16	14	56	5	45	60.0	-69705.0	-1114.0	-5692794.0
16	14	56	5	137	61.0	114123.0	-1709.0	-5693047.0
16	14	56	5	138	62.0	-118389.0	-1287.0	-5692264.0
16	14	56	5	138	63.0	-213639.0	-645.0	-5691665.0
16	14	56	5	139	64.0	-43717.0	-422.0	-5692902.0
16	14	56	5	139	65.0	10206.0	-109.0	-5693227.0
16	14	56	5	139	66.0	-5479.0	-210.0	-5692461.0
16	14	56	5	140	67.0	53629.0	150.0	-5691661.0
16	14	56	5	140	68.0	154550.0	-1091.0	-5692075.0
16	14	56	5	140	69.0	89066.0	-1101.0	-5692958.0
16	14	56	5	141	70.0	-115955.0	-476.0	-5692359.0
16	14	56	5	141	71.0	-292389.0	522.0	-5691595.0
16	14	56	5	141	72.0	-307178.0	570.0	-5692323.0
16	14	56	5	142	73.0	-221094.0	319.0	-5692839.0
16	14	56	5	142	74.0	-143627.0	542.0	-5692183.0
16	14	56	5	142	75.0	-146464.0	-301.0	-5691607.0
16	14	56	5	143	76.0	-173015.0	-976.0	-5692694.0
16	14	56	5	143	77.0	-115820.0	-384.0	-5692725.0
16	14	56	5	143	78.0	-50471.0	764.0	-5692037.0
16	14	56	5	144	79.0	-46971.0	1334.0	-5691332.0
16	14	56	5	144	80.0	-66557.0	818.0	-5692466.0
16	14	56	5	144	81.0	36154.0	1165.0	-5693072.0
16	14	56	5	144	82.0	236798.0	781.0	-5692408.0
16	14	56	5	145	83.0	378352.0	-92.0	-5691671.0
16	14	56	5	145	84.0	376442.0	-361.0	-5692682.0
16	14	56	5	145	85.0	377187.0	796.0	-5693234.0
16	14	56	5	146	86.0	439100.0	2080.0	-5692547.0
16	14	56	5	146	87.0	464248.0	2291.0	-5691736.0
16	14	56	5	146	88.0	438754.0	2201.0	-5692078.0
16	14	56	5	146	89.0	425550.0	2928.0	-5692869.0
16	14	56	5	147	90.0	370794.0	2066.0	-5692242.0
16	14	56	5	147	91.0	223636.0	1234.0	-5691593.0
16	14	56	5	147	92.0	120358.0	1433.0	-5692640.0
16	14	56	5	148	93.0	74261.0	1913.0	-5693009.0
16	14	56	5	148	94.0	20861.0	2084.0	-5692274.0
16	14	56	5	148	95.0	-33437.0	2291.0	-5691527.0
16	14	56	5	149	96.0	-52279.0	2861.0	-5691993.0
16	14	56	5	149	97.0	-34263.0	3131.0	-5692173.0
16	14	56	5	149	98.0	-11427.0	2571.0	-5691491.0
16	14	56	5	150	99.0	5752.0	2388.0	-5691290.0
16	14	56	5	150	100.0	47463.0	3169.0	-5692457.0
16	14	56	5	151	101.0	55886.0	3922.0	-5692024.0
