16	14	20	1	268	28.0	-217227.0	167059.0	-5638435.0
16	14	20	1	270	29.0	-85329.0	161156.0	-5639060.0
16	14	20	1	271	30.0	45461.0	155334.0	-5638439.0
16	14	20	1	272	31.0	174903.0	150338.0	-5637642.0
16	14	20	1	273	32.0	261176.0	144213.0	-5637822.0
16	14	20	1	274	33.0	274038.0	137626.0	-5639205.0
16	14	20	1	275	34.0	228944.0	130506.0	-5638831.0
16	14	20	1	275	35.0	156203.0	124304.0	-5637991.0
16	14	20	1	277	36.0	80753.0	117894.0	-5637678.0
16	14	20	1	277	37.0	15978.0	110624.0	-5638913.0
16	14	20	1	278	38.0	-44621.0	103919.0	-5638863.0
16	14	20	1	279	39.0	-95011.0	97052.0	-5638064.0
16	14	20	1	299	40.0	-122230.0	90332.0	-5637485.0
16	14	20	1	299	41.0	-151368.0	83057.0	-5638283.0
16	14	20	1	300	42.0	-186317.0	77155.0	-5638840.0
16	14	20	1	301	43.0	-218743.0	70692.0	-5638082.0
16	14	20	1	301	44.0	-251836.0	63201.0	-5637649.0
16	14	20	1	302	45.0	-274569.0	55364.0	-5638842.0
16	14	20	1	302	46.0	-268393.0	48718.0	-5639077.0
16	14	20	1	303	47.0	-221692.0	41663.0	-5638261.0
16	14	20	1	328	48.0	-157990.0	34035.0	-5637915.0
16	14	20	1	365	49.0	-97667.0	26883.0	-5639376.0
16	14	20	1	365	50.0	-33871.0	21200.0	-5639562.0
16	14	20	1	385	51.0	12620.0	14134.0	-5638720.0
16	14	20	1	385	52.0	35913.0	6777.0	-5638027.0
16	14	20	1	386	53.0	33642.0	-627.0	-5637797.0
16	14	20	1	386	54.0	26421.0	-7379.0	-5638818.0
16	14	20	1	386	55.0	17298.0	-13531.0	-5638384.0
16	14	20	1	387	56.0	-17266.0	-20644.0	-5637894.0
16	14	20	1	387	57.0	-66611.0	-27276.0	-5638996.0
16	14	20	1	387	58.0	-104324.0	-33489.0	-5639119.0
16	14	20	1	387	59.0	-124687.0	-39128.0	-5638380.0
16	14	20	1	388	60.0	-116901.0	-44661.0	-5637699.0
16	14	20	1	388	61.0	-76110.0	-50331.0	-5638216.0
16	14	20	1	388	62.0	4508.0	-55692.0	-5638840.0
16	14	20	1	389	63.0	97907.0	-61566.0	-5638227.0
16	14	20	1	389	84.0	474878.0	-132049.0	-5638097.0
16	14	20	1	389	85.0	250012.0	-134006.0	-5638879.0
16	14	20	1	389	86.0	44691.0	-136446.0	-5639720.0
16	14	20	1	390	87.0	-120338.0	-138351.0	-5639063.0
16	14	20	1	390	88.0	-265352.0	-139673.0	-5638246.0
16	14	20	1	390	89.0	-429974.0	-140226.0	-5638771.0
16	14	20	1	390	90.0	-599446.0	-141079.0	-5639879.0
16	14	20	1	410	91.0	-774973.0	-142179.0	-5639299.0
16	14	20	1	411	92.0	-896768.0	-142954.0	-5638518.0
16	14	20	1	430	93.0	-987612.0	-142481.0	-5638511.0
16	14	20	1	430	94.0	-1078363.0	-142992.0	-5639951.0
16	14	20	1	430	95.0	-1154938.0	-143936.0	-5639577.0
16	14	20	1	431	96.0	-1244839.0	-144803.0	-5638792.0
16	14	20	1	431	97.0	-1295707.0	-144491.0	-5638679.0
16	14	20	1	431	98.0	-1288491.0	-144395.0	-5640251.0
16	14	20	1	432	99.0	-1273228.0	-144373.0	-5640028.0
16	14	20	1	432	100.0	-1246596.0	-143824.0	-5639240.0
16	14	20	1	432	101.0	-1220352.0	-143141.0	-5638512.0
16	14	20	1	432	102.0	-1164092.0	-142565.0	-5638664.0
16	14	20	1	433	103.0	-1055847.0	-142132.0	-5639309.0
16	14	20	1	433	104.0	-939980.0	-140632.0	-5638701.0
16	14	20	1	433	105.0	-932097.0	-139765.0	-5638326.0
16	14	20	1	433	107.0	-870814.0	-138116.0	-5639658.0
16	14	20	1	434	108.0	-801096.0	-137112.0	-5638937.0
16	14	20	1	434	109.0	-739304.0	-135105.0	-5638332.0
16	14	20	1	434	110.0	-677376.0	-132614.0	-5639156.0
16	14	20	1	434	111.0	-615569.0	-130313.0	-5639124.0
16	14	20	1	435	112.0	-541916.0	-128189.0	-5638451.0
16	14	20	1	455	113.0	-467814.0	-125302.0	-5638158.0
16	14	20	1	469	114.0	-412451.0	-122268.0	-5638947.0
16	14	20	1	469	115.0	-369283.0	-118434.0	-5638416.0
16	14	20	1	469	116.0	-325875.0	-115977.0	-5637760.0
16	14	20	1	470	117.0	-283941.0	-113658.0	-5638511.0
16	14	20	1	470	118.0	-260792.0	-110950.0	-5639455.0
16	14	20	1	470	119.0	-244037.0	-107433.0	-5638729.0
16	14	20	1	471	120.0	-217682.0	-103755.0	-5638011.0
16	14	20	1	471	121.0	-188531.0	-100706.0	-5637722.0
16	14	20	1	471	122.0	-156147.0	-96981.0	-5639247.0
16	14	20	1	471	123.0	-120789.0	-93251.0	-5639113.0
16	14	20	1	472	124.0	-86161.0	-89298.0	-5638368.0
16	14	20	1	472	125.0	-53666.0	-85932.0	-5638101.0
16	14	20	1	472	126.0	-28251.0	-82034.0	-5639596.0
16	14	20	1	472	127.0	-20614.0	-78078.0	-5639450.0
16	14	20	1	472	129.0	-13489.0	-71132.0	-5638208.0
16	14	20	1	473	130.0	-12894.0	-67034.0	-5639513.0
16	14	20	1	473	131.0	-16383.0	-63835.0	-5639486.0
16	14	20	1	473	132.0	-31197.0	-59643.0	-5638739.0
16	14	20	1	473	133.0	-45966.0	-55182.0	-5637991.0
16	14	20	1	474	134.0	-51782.0	-51336.0	-5638591.0
16	14	20	1	474	135.0	-51544.0	-47841.0	-5639802.0
16	14	20	1	502	136.0	-51107.0	-44116.0	-5639222.0
16	14	20	1	502	137.0	-53324.0	-39799.0	-5638439.0
16	14	20	1	502	138.0	-66459.0	-35267.0	-5638889.0
16	14	20	1	502	139.0	-87052.0	-31569.0	-5640297.0
16	14	20	1	518	140.0	-123699.0	-27954.0	-5639755.0
16	14	20	1	519	141.0	-163645.0	-23839.0	-5639025.0
16	14	20	1	519	142.0	-205376.0	-19761.0	-5638964.0
16	14	20	1	520	143.0	-234548.0	-15988.0	-5640333.0
16	14	20	1	520	144.0	-257639.0	-12257.0	-5639941.0
16	14	20	1	520	145.0	-271226.0	-9050.0	-5639197.0
16	14	20	1	521	146.0	-287232.0	-6891.0	-5638997.0
16	14	20	1	521	147.0	-308990.0	-4501.0	-5640436.0
16	14	20	1	522	148.0	-338798.0	-1368.0	-5640147.0
16	14	20	1	522	149.0	-366748.0	1632.0	-5639391.0
16	14	20	1	522	150.0	-386107.0	3609.0	-5638661.0
16	14	20	1	523	152.0	-412138.0	7634.0	-5640087.0
16	14	20	1	523	153.0	-418773.0	9239.0	-5639542.0
16	14	20	1	523	154.0	-394001.0	10589.0	-5638845.0
16	14	20	1	524	155.0	-354558.0	12228.0	-5639769.0
16	14	20	1	524	156.0	-301417.0	13508.0	-5640518.0
16	14	20	1	525	157.0	-247073.0	15258.0	-5639845.0
16	14	20	1	545	158.0	-193052.0	16300.0	-5639050.0
16	14	20	1	545	159.0	-137267.0	17287.0	-5639076.0
16	14	20	1	564	160.0	-84927.0	19240.0	-5640513.0
16	14	20	1	565	161.0	-37758.0	20808.0	-5640226.0
16	14	20	1	565	162.0	1624.0	21760.0	-5639401.0
16	14	20	1	565	163.0	40146.0	22122.0	-5638877.0
16	14	20	1	565	164.0	73146.0	22470.0	-5639889.0
16	14	20	1	566	165.0	108391.0	23046.0	-5640012.0
16	14	20	1	566	166.0	141877.0	22612.0	-5639227.0
16	14	20	1	566	167.0	164628.0	22513.0	-5638844.0
16	14	20	1	567	168.0	179042.0	22780.0	-5640176.0
16	14	20	1	590	169.0	196545.0	22892.0	-5640286.0
16	14	20	1	590	170.0	227341.0	22966.0	-5639516.0
16	14	20	1	601	171.0	260151.0	22492.0	-5638915.0
16	14	20	1	601	172.0	286547.0	21454.0	-5639830.0
16	14	20	1	601	174.0	322176.0	20680.0	-5639986.0
16	14	20	1	602	175.0	335811.0	18755.0	-5639351.0
16	14	20	1	602	176.0	351985.0	16526.0	-5640112.0
16	14	20	1	602	177.0	363296.0	15699.0	-5641092.0
16	14	20	1	602	178.0	366198.0	14638.0	-5640333.0
16	14	20	1	603	179.0	365915.0	14339.0	-5639612.0
16	14	20	1	603	180.0	354271.0	13963.0	-5639054.0
16	14	20	1	603	181.0	337328.0	12298.0	-5640421.0
16	14	20	1	603	182.0	322933.0	11087.0	-5640624.0
16	14	20	1	604	183.0	298404.0	9881.0	-5639942.0
16	14	20	1	604	184.0	276763.0	8638.0	-5639459.0
16	14	20	1	604	197.0	5509.0	-12217.0	-5640088.0
16	14	20	1	605	198.0	-13895.0	-14522.0	-5641385.0
16	14	20	1	605	199.0	-43523.0	-15807.0	-5641009.0
16	14	20	1	605	200.0	-71209.0	-16726.0	-5640208.0
16	14	20	1	605	201.0	-97996.0	-18070.0	-5639796.0
16	14	20	1	606	202.0	-110059.0	-18846.0	-5641017.0
16	14	20	1	635	203.0	-123289.0	-20376.0	-5641080.0
16	14	20	1	636	204.0	-132044.0	-21811.0	-5640312.0
16	14	20	1	636	205.0	-137576.0	-22606.0	-5640042.0
16	14	20	1	636	206.0	-131527.0	-23963.0	-5641219.0
16	14	20	1	636	207.0	-117901.0	-25194.0	-5640969.0
16	14	20	1	637	208.0	-112188.0	-26656.0	-5640176.0
16	14	20	1	652	209.0	-105374.0	-28696.0	-5639762.0
16	14	20	1	653	210.0	-102742.0	-30308.0	-5641108.0
16	14	20	1	653	211.0	-101452.0	-31582.0	-5641173.0
16	14	20	1	653	212.0	-112631.0	-32531.0	-5640367.0
16	14	20	1	654	213.0	-129801.0	-33906.0	-5639665.0
16	14	20	1	654	214.0	-144912.0	-34963.0	-5639966.0
16	14	20	1	655	215.0	-163892.0	-35792.0	-5641117.0
16	14	20	1	655	216.0	-169956.0	-37371.0	-5640519.0
16	14	20	1	656	217.0	-165013.0	-38651.0	-5639789.0
16	14	20	1	656	219.0	-133859.0	-40126.0	-5640742.0
16	14	20	1	657	220.0	-117747.0	-40721.0	-5640172.0
16	14	20	1	657	221.0	-100139.0	-42502.0	-5639491.0
16	14	20	1	658	222.0	-76104.0	-43276.0	-5640607.0
16	14	20	1	658	223.0	-59014.0	-43842.0	-5641259.0
16	14	20	1	659	224.0	-33371.0	-44321.0	-5640574.0
16	14	20	1	659	225.0	1022.0	-44657.0	-5639829.0
16	14	20	1	681	226.0	23946.0	-45621.0	-5640590.0
16	14	20	1	702	227.0	47526.0	-45952.0	-5641394.0
16	14	20	1	703	228.0	61425.0	-46173.0	-5640754.0
16	14	20	1	703	229.0	77968.0	-45927.0	-5639981.0
16	14	20	1	704	230.0	106829.0	-46037.0	-5639900.0
16	14	20	1	704	231.0	133577.0	-46142.0	-5641509.0
16	14	20	1	704	232.0	159458.0	-46697.0	-5641318.0
16	14	20	1	704	233.0	183444.0	-47519.0	-5640525.0
16	14	20	1	705	234.0	203668.0	-48152.0	-5640201.0
16	14	20	1	705	235.0	220657.0	-48436.0	-5641556.0
16	14	20	1	705	236.0	228948.0	-48331.0	-5641544.0
16	14	20	1	706	237.0	230458.0	-48329.0	-5640721.0
16	14	20	1	706	238.0	211923.0	-47804.0	-5640201.0
16	14	20	1	706	239.0	180666.0	-47802.0	-5641392.0
16	14	20	1	707	240.0	126473.0	-47701.0	-5641818.0
16	14	20	1	707	242.0	-28079.0	-46994.0	-5640270.0
16	14	20	1	707	243.0	-111846.0	-47850.0	-5640514.0
16	14	20	1	708	244.0	-187197.0	-48136.0	-5641677.0
16	14	20	1	708	245.0	-263554.0	-47852.0	-5641042.0
16	14	20	1	708	246.0	-320552.0	-47412.0	-5640326.0
16	14	20	1	708	247.0	-361157.0	-47161.0	-5640600.0
16	14	20	1	725	248.0	-382639.0	-46673.0	-5641827.0
16	14	20	1	725	249.0	-381080.0	-45512.0	-5641205.0
16	14	20	1	736	250.0	-345904.0	-44009.0	-5640509.0
16	14	20	1	737	251.0	-282178.0	-43264.0	-5640108.0
16	14	20	1	737	252.0	-178588.0	-43031.0	-5641514.0
16	14	20	1	737	253.0	-58502.0	-42692.0	-5641392.0
16	14	20	1	737	254.0	54147.0	-41827.0	-5640684.0
16	14	20	1	738	255.0	112191.0	-41611.0	-5640269.0
16	14	20	1	738	0.0	60533.0	-41590.0	-5641352.0
16	14	20	1	738	1.0	-123052.0	-41009.0	-5641063.0
16	14	20	1	738	2.0	-357022.0	-40768.0	-5640314.0
16	14	20	1	739	3.0	-597006.0	-40060.0	-5639959.0
16	14	20	1	739	4.0	-740103.0	-39199.0	-5640854.0
16	14	20	1	739	5.0	-766975.0	-38204.0	-5640412.0
16	14	20	1	740	6.0	-715053.0	-37519.0	-5639694.0
16	14	20	1	753	8.0	-451261.0	-36155.0	-5640511.0
16	14	20	1	753	9.0	-149911.0	-36207.0	-5639910.0
16	14	20	1	754	10.0	277669.0	-36213.0	-5639785.0
16	14	20	1	754	11.0	765099.0	-35165.0	-5641356.0
16	14	20	1	754	12.0	1230704.0	-34419.0	-5641093.0
16	14	20	1	754	13.0	1548414.0	-33966.0	-5640391.0
16	14	20	1	755	14.0	1632339.0	-32928.0	-5639766.0
16	14	20	1	769	15.0	1492326.0	-32319.0	-5640514.0
16	14	20	1	786	16.0	1173721.0	-30426.0	-5640554.0
16	14	20	1	786	17.0	744053.0	-28402.0	-5639847.0
16	14	20	1	786	18.0	363008.0	-27629.0	-5639839.0
16	14	20	1	787	19.0	44187.0	-26904.0	-5641215.0
16	14	20	1	787	20.0	-255817.0	-26202.0	-5640632.0
16	14	20	1	787	21.0	-468554.0	-25697.0	-5639905.0
16	14	20	1	787	22.0	-579450.0	-24316.0	-5639404.0
16	14	20	1	788	23.0	-538968.0	-22854.0	-5640412.0
16	14	20	1	788	24.0	-387336.0	-21712.0	-5640246.0
16	14	20	1	788	25.0	-195614.0	-20294.0	-5639544.0
16	14	20	1	815	26.0	-41641.0	-19659.0	-5639587.0
16	14	20	1	815	27.0	94451.0	-17950.0	-5640606.0
16	14	20	1	837	28.0	254334.0	-16603.0	-5640102.0
16	14	20	1	838	29.0	435303.0	-16266.0	-5639612.0
16	14	20	1	838	31.0	626831.0	-14406.0	-5641228.0
16	14	20	1	839	32.0	588129.0	-14167.0	-5640489.0
16	14	20	1	839	33.0	466788.0	-13429.0	-5639756.0
16	14	20	1	840	34.0	297406.0	-12469.0	-5640248.0
16	14	20	1	840	35.0	117950.0	-11148.0	-5640440.0
16	14	20	1	841	36.0	-44599.0	-8994.0	-5639740.0
16	14	20	1	841	37.0	-168754.0	-7615.0	-5639104.0
16	14	20	1	842	38.0	-240352.0	-7194.0	-5639929.0
16	14	20	1	842	39.0	-281400.0	-6044.0	-5639859.0
16	14	20	1	843	40.0	-301472.0	-5053.0	-5639196.0
16	14	20	1	843	41.0	-306166.0	-4472.0	-5639826.0
16	14	20	1	844	42.0	-291258.0	-2745.0	-5640677.0
16	14	20	1	844	53.0	-129821.0	6006.0	-5639084.0
16	14	20	1	845	54.0	-119405.0	5269.0	-5639741.0
16	14	20	1	845	55.0	-91171.0	4866.0	-5639102.0
16	14	20	1	846	56.0	-67155.0	5001.0	-5638367.0
16	14	20	1	846	57.0	-40036.0	4904.0	-5638842.0
16	14	20	1	847	58.0	-3007.0	5636.0	-5639228.0
16	14	20	1	847	59.0	27863.0	6506.0	-5638698.0
16	14	20	1	906	60.0	45846.0	7582.0	-5639714.0
16	14	20	1	907	61.0	55551.0	8380.0	-5640410.0
16	14	20	1	908	62.0	66990.0	10123.0	-5639606.0
16	14	20	1	908	63.0	88390.0	11240.0	-5638939.0
16	14	20	1	923	64.0	120149.0	12060.0	-5638454.0
16	14	20	1	924	65.0	151418.0	12814.0	-5639381.0
16	14	20	1	924	66.0	177579.0	13516.0	-5639142.0
16	14	20	1	925	67.0	200967.0	13901.0	-5638416.0
16	14	20	1	925	68.0	220204.0	14599.0	-5638293.0
16	14	20	1	926	69.0	235902.0	15165.0	-5639276.0
16	14	20	1	926	70.0	246316.0	15537.0	-5638767.0
16	14	20	1	927	71.0	258497.0	15513.0	-5638359.0
16	14	20	1	927	72.0	278054.0	16085.0	-5639969.0
16	14	20	1	928	73.0	305564.0	16916.0	-5640146.0
16	14	20	1	928	74.0	330419.0	17556.0	-5639381.0
16	14	20	1	929	98.0	-39397.0	59556.0	-5638846.0
16	14	20	1	929	99.0	7955.0	64174.0	-5638152.0
16	14	20	1	930	100.0	66418.0	69128.0	-5639154.0
16	14	20	1	930	101.0	136839.0	75183.0	-5639504.0
16	14	20	1	931	102.0	202139.0	80990.0	-5638819.0
16	14	20	1	932	103.0	316518.0	87069.0	-5638069.0
16	14	20	1	954	104.0	470837.0	93963.0	-5638726.0
16	14	20	1	955	105.0	571983.0	101308.0	-5639682.0
16	14	20	1	955	106.0	726813.0	109090.0	-5639077.0
16	14	20	1	956	107.0	858918.0	116772.0	-5638366.0
16	14	20	1	956	108.0	1026766.0	123865.0	-5639134.0
16	14	20	1	956	109.0	1175836.0	130850.0	-5639987.0
16	14	20	1	957	110.0	1236646.0	138096.0	-5639311.0
16	14	20	1	957	111.0	1253699.0	144898.0	-5638572.0
16	14	20	1	975	112.0	1251913.0	151678.0	-5639057.0
16	14	20	1	976	113.0	1200758.0	158246.0	-5640169.0
16	14	20	1	976	114.0	1126551.0	163529.0	-5639566.0
16	14	20	1	976	115.0	1012911.0	169589.0	-5638768.0
16	14	20	1	976	116.0	852817.0	175757.0	-5638103.0
16	14	20	1	977	117.0	709261.0	181088.0	-5638942.0
16	14	20	1	977	118.0	568908.0	185633.0	-5639424.0
16	14	20	1	977	120.0	259338.0	195879.0	-5638035.0
16	14	20	1	978	121.0	119550.0	200293.0	-5639045.0
16	14	20	1	978	122.0	-45158.0	203690.0	-5639685.0
16	14	20	1	994	123.0	-197866.0	207844.0	-5639002.0
16	14	20	2	9	124.0	-341152.0	211294.0	-5638319.0
16	14	20	2	10	125.0	-476510.0	214540.0	-5639224.0
16	14	20	2	10	126.0	-570234.0	217398.0	-5639726.0
16	14	20	2	10	127.0	-621185.0	220441.0	-5638991.0
16	14	20	2	10	128.0	-644689.0	223374.0	-5638225.0
16	14	20	2	11	129.0	-653563.0	225338.0	-5638834.0
16	14	20	2	11	130.0	-644455.0	226198.0	-5639744.0
16	14	20	2	11	131.0	-607450.0	227082.0	-5639093.0
16	14	20	2	12	132.0	-561897.0	227268.0	-5638354.0
16	14	20	2	12	133.0	-497548.0	227247.0	-5638039.0
16	14	20	2	12	134.0	-423942.0	226868.0	-5639364.0
16	14	20	2	12	135.0	-351644.0	225809.0	-5639322.0
16	14	20	2	13	136.0	-270534.0	224871.0	-5638552.0
16	14	20	2	13	137.0	-209012.0	222966.0	-5638146.0
16	14	20	2	13	143.0	-108270.0	206878.0	-5639919.0
16	14	20	2	13	144.0	-142700.0	202173.0	-5639121.0
16	14	20	2	14	145.0	-201179.0	197379.0	-5638625.0
16	14	20	2	14	146.0	-325406.0	192559.0	-5639719.0
16	14	20	2	14	147.0	-496317.0	187564.0	-5640031.0
16	14	20	2	15	148.0	-765826.0	182586.0	-5639199.0
16	14	20	2	40	149.0	-897382.0	176859.0	-5638536.0
16	14	20	2	52	150.0	-804191.0	170806.0	-5639316.0
16	14	20	2	53	151.0	-633601.0	165807.0	-5640302.0
16	14	20	2	53	152.0	-463361.0	159621.0	-5639616.0
16	14	20	2	53	153.0	-278868.0	153090.0	-5638971.0
16	14	20	2	54	154.0	-102849.0	146674.0	-5638826.0
16	14	20	2	54	155.0	17190.0	139839.0	-5640394.0
16	14	20	2	54	156.0	26879.0	132896.0	-5640130.0
16	14	20	2	55	157.0	-14429.0	125726.0	-5639444.0
16	14	20	2	55	158.0	-96156.0	118354.0	-5638966.0
16	14	20	2	55	159.0	-191556.0	111123.0	-5639987.0
16	14	20	2	56	160.0	-292254.0	103200.0	-5639794.0
16	14	20	2	56	161.0	-421284.0	96023.0	-5639125.0
16	14	20	2	56	162.0	-574112.0	88912.0	-5639762.0
16	14	20	2	57	163.0	-726243.0	80998.0	-5640593.0
16	14	20	2	57	165.0	-999274.0	66271.0	-5639171.0
16	14	20	2	58	166.0	-1084451.0	58498.0	-5638787.0
16	14	20	2	58	167.0	-1137988.0	50127.0	-5640269.0
16	14	20	2	58	168.0	-1128875.0	42666.0	-5640180.0
16	14	20	2	59	169.0	-1046623.0	35211.0	-5639447.0
16	14	20	2	59	170.0	-944311.0	28373.0	-5639004.0
16	14	20	2	73	171.0	-830994.0	21253.0	-5640334.0
16	14	20	2	90	172.0	-744658.0	13974.0	-5640274.0
16	14	20	2	90	173.0	-666171.0	7039.0	-5639589.0
16	14	20	2	91	174.0	-582651.0	496.0	-5638998.0
16	14	20	2	107	175.0	-525610.0	-5917.0	-5640089.0
16	14	20	2	107	176.0	-487282.0	-13244.0	-5640492.0
16	14	20	2	108	177.0	-456207.0	-20485.0	-5639778.0
16	14	20	2	108	178.0	-436553.0	-27091.0	-5639006.0
16	14	20	2	108	179.0	-421153.0	-33213.0	-5639519.0
16	14	20	2	108	180.0	-409102.0	-39334.0	-5640631.0
16	14	20	2	109	181.0	-373376.0	-45426.0	-5640064.0
16	14	20	2	109	182.0	-318825.0	-51432.0	-5639271.0
16	14	20	2	109	183.0	-265202.0	-57006.0	-5639184.0
16	14	20	2	109	184.0	-205489.0	-62862.0	-5640595.0
16	14	20	2	110	185.0	-131308.0	-67981.0	-5640376.0
16	14	20	2	110	186.0	-46354.0	-72485.0	-5639589.0
16	14	20	2	110	188.0	160134.0	-81857.0	-5641061.0
16	14	20	2	111	189.0	275145.0	-87776.0	-5640822.0
16	14	20	2	111	190.0	369146.0	-92645.0	-5640051.0
16	14	20	2	111	191.0	451879.0	-96954.0	-5639811.0
16	14	20	2	112	192.0	532899.0	-100807.0	-5641160.0
16	14	20	2	112	193.0	600497.0	-104339.0	-5641010.0
16	14	20	2	130	194.0	646556.0	-107894.0	-5640255.0
16	14	20	2	130	195.0	676834.0	-110871.0	-5639504.0
16	14	20	2	141	196.0	688504.0	-112916.0	-5639578.0
16	14	20	2	142	197.0	679852.0	-115382.0	-5640427.0
16	14	20	2	142	198.0	652496.0	-117899.0	-5639869.0
16	14	20	2	142	199.0	604355.0	-119943.0	-5639357.0
16	14	20	2	143	200.0	540853.0	-121568.0	-5640666.0
16	14	20	2	143	201.0	471164.0	-123574.0	-5640837.0
16	14	20	2	143	202.0	395314.0	-125911.0	-5640109.0
16	14	20	2	143	203.0	314838.0	-127552.0	-5639541.0
16	14	20	2	144	204.0	239229.0	-129228.0	-5640743.0
16	14	20	2	144	205.0	172912.0	-130832.0	-5641232.0
16	14	20	2	144	206.0	123214.0	-132101.0	-5640543.0
16	14	20	2	145	207.0	79894.0	-133341.0	-5639774.0
16	14	20	2	145	208.0	41840.0	-134520.0	-5640333.0
16	14	20	2	145	210.0	-24468.0	-136940.0	-5640888.0
16	14	20	2	145	211.0	-42284.0	-138037.0	-5640049.0
16	14	20	2	146	212.0	-54491.0	-139651.0	-5639850.0
16	14	20	2	159	213.0	-66341.0	-140209.0	-5641287.0
16	14	20	2	159	214.0	-70702.0	-140252.0	-5641192.0
16	14	20	2	159	215.0	-65718.0	-140484.0	-5640380.0
16	14	20	2	159	216.0	-55171.0	-140646.0	-5639866.0
16	14	20	2	176	217.0	-38411.0	-141134.0	-5641002.0
16	14	20	2	176	218.0	-12256.0	-140859.0	-5641382.0
16	14	20	2	176	219.0	16764.0	-139792.0	-5640602.0
16	14	20	2	177	220.0	42891.0	-138651.0	-5640240.0
16	14	20	2	177	221.0	61238.0	-138596.0	-5641523.0
16	14	20	2	193	222.0	57129.0	-138281.0	-5641644.0
16	14	20	2	193	223.0	38608.0	-137566.0	-5640869.0
16	14	20	2	194	224.0	27360.0	-136507.0	-5640241.0
16	14	20	2	194	225.0	34391.0	-134721.0	-5640957.0
16	14	20	2	194	226.0	35207.0	-133181.0	-5642149.0
16	14	20	2	195	227.0	36001.0	-131772.0	-5641415.0
16	14	20	2	195	228.0	49013.0	-130166.0	-5640684.0
16	14	20	2	195	229.0	49243.0	-128569.0	-5640302.0
16	14	20	2	195	230.0	41344.0	-127160.0	-5641253.0
16	14	20	2	196	231.0	-10380.0	-125711.0	-5640864.0
16	14	20	2	196	233.0	96026.0	-120265.0	-5640641.0
16	14	20	2	196	234.0	76569.0	-117871.0	-5641481.0
16	14	20	2	197	235.0	41566.0	-115587.0	-5640827.0
16	14	20	2	197	236.0	44628.0	-112617.0	-5640096.0
16	14	20	2	197	237.0	66018.0	-109967.0	-5640382.0
16	14	20	2	197	238.0	78423.0	-106854.0	-5641004.0
16	14	20	2	221	239.0	72161.0	-103772.0	-5640384.0
16	14	20	2	222	240.0	58749.0	-100068.0	-5640294.0
16	14	20	2	223	241.0	75165.0	-96483.0	-5641632.0
16	14	20	2	224	242.0	71874.0	-93292.0	-5641188.0
16	14	20	2	225	243.0	53357.0	-89344.0	-5640439.0
16	14	20	2	226	244.0	44461.0	-86026.0	-5639711.0
16	14	20	2	227	245.0	38231.0	-82118.0	-5640376.0
16	14	20	2	227	246.0	23692.0	-78898.0	-5641387.0
16	14	20	2	228	247.0	6541.0	-75018.0	-5640769.0
16	14	20	2	229	248.0	-13544.0	-71277.0	-5640006.0
16	14	20	2	229	249.0	-29486.0	-67118.0	-5640323.0
16	14	20	2	230	250.0	-45420.0	-63212.0	-5641426.0
16	14	20	2	231	251.0	-64887.0	-59767.0	-5640903.0
16	14	20	2	232	252.0	-85642.0	-56536.0	-5640102.0
16	14	20	2	233	253.0	-97424.0	-53178.0	-5640141.0
16	14	20	2	233	255.0	-89657.0	-45704.0	-5641237.0
16	14	20	2	234	0.0	-81972.0	-42097.0	-5640451.0
16	14	20	2	235	1.0	-70054.0	-39452.0	-5640130.0
16	14	20	2	235	2.0	-53136.0	-36066.0	-5641390.0
16	14	20	2	236	3.0	-27641.0	-32587.0	-5641311.0
16	14	20	2	237	4.0	-587.0	-29389.0	-5640479.0
16	14	20	2	237	5.0	32229.0	-26525.0	-5639911.0
16	14	20	2	265	6.0	71576.0	-23146.0	-5640850.0
16	14	20	2	266	7.0	102928.0	-19647.0	-5641246.0
16	14	20	2	267	8.0	122427.0	-16097.0	-5640459.0
16	14	20	2	267	9.0	135624.0	-13494.0	-5639829.0
16	14	20	2	268	10.0	132036.0	-11079.0	-5640562.0
16	14	20	2	268	11.0	131605.0	-8586.0	-5641524.0
16	14	20	2	312	12.0	122326.0	-6073.0	-5640786.0
16	14	20	2	312	13.0	94479.0	-3894.0	-5640109.0
16	14	20	2	312	14.0	51826.0	-2076.0	-5640663.0
16	14	20	2	313	15.0	6218.0	-165.0	-5641721.0
16	14	20	2	322	16.0	-30031.0	1779.0	-5641024.0
16	14	20	2	323	17.0	-49077.0	4023.0	-5640337.0
16	14	20	2	324	18.0	-54781.0	5724.0	-5639784.0
16	14	20	2	324	19.0	-52459.0	7481.0	-5640960.0
16	14	20	2	325	20.0	-49019.0	9441.0	-5641069.0
16	14	20	2	325	22.0	-63588.0	11852.0	-5639633.0
16	14	20	2	326	23.0	-69521.0	11956.0	-5640400.0
16	14	20	2	326	24.0	-76286.0	12696.0	-5641220.0
16	14	20	2	327	25.0	-89087.0	14334.0	-5640630.0
16	14	20	2	327	26.0	-92949.0	14797.0	-5639861.0
16	14	20	2	328	27.0	-89078.0	15606.0	-5640368.0
16	14	20	2	328	44.0	79053.0	9059.0	-5641144.0
16	14	20	2	349	45.0	106029.0	7963.0	-5642062.0
16	14	20	2	349	46.0	128582.0	6712.0	-5641337.0
16	14	20	2	350	47.0	132928.0	5555.0	-5640643.0
16	14	20	2	351	48.0	122367.0	4635.0	-5640381.0
16	14	20	2	351	49.0	108016.0	4160.0	-5641332.0
16	14	20	2	352	50.0	88091.0	3138.0	-5640887.0
16	14	20	2	371	51.0	64377.0	1223.0	-5640135.0
16	14	20	2	372	52.0	44803.0	108.0	-5640073.0
16	14	20	2	372	53.0	27932.0	-382.0	-5640966.0
16	14	20	2	373	54.0	11022.0	-1720.0	-5640427.0
16	14	20	2	373	55.0	-2965.0	-3456.0	-5639921.0
16	14	20	2	373	56.0	-10279.0	-4871.0	-5641119.0
16	14	20	2	374	57.0	-27640.0	-6206.0	-5641318.0
16	14	20	2	374	58.0	-48011.0	-7297.0	-5640584.0
16	14	20	2	374	59.0	-65489.0	-8499.0	-5639918.0
16	14	20	2	374	60.0	-78597.0	-9952.0	-5640632.0
16	14	20	2	375	61.0	-89373.0	-11551.0	-5641026.0
16	14	20	2	375	62.0	-98858.0	-12476.0	-5640357.0
16	14	20	2	375	63.0	-98402.0	-14106.0	-5640671.0
16	14	20	2	376	64.0	-101362.0	-15237.0	-5642015.0
16	14	20	2	376	65.0	-105757.0	-16847.0	-5641424.0
16	14	20	2	376	67.0	-79139.0	-19532.0	-5639939.0
16	14	20	2	376	68.0	-46889.0	-21821.0	-5640682.0
16	14	20	2	377	69.0	-13816.0	-23161.0	-5641437.0
16	14	20	2	377	70.0	12967.0	-25137.0	-5640829.0
16	14	20	2	377	71.0	17575.0	-26508.0	-5640057.0
16	14	20	2	378	72.0	12287.0	-27678.0	-5640545.0
16	14	20	2	400	73.0	6319.0	-28638.0	-5641552.0
16	14	20	2	401	74.0	5137.0	-29245.0	-5641041.0
16	14	20	2	421	75.0	-1894.0	-29179.0	-5640321.0
16	14	20	2	421	76.0	-11351.0	-30379.0	-5640802.0
16	14	20	2	422	77.0	-22475.0	-31712.0	-5641711.0
16	14	20	2	422	78.0	-33755.0	-32989.0	-5641146.0
16	14	20	2	423	79.0	-41943.0	-34132.0	-5640322.0
16	14	20	2	423	80.0	-47763.0	-35005.0	-5640394.0
16	14	20	2	423	81.0	-45080.0	-36050.0	-5641907.0
16	14	20	2	424	82.0	-31474.0	-37208.0	-5641651.0
16	14	20	2	424	83.0	-7922.0	-37709.0	-5640820.0
16	14	20	2	425	84.0	17319.0	-38216.0	-5640347.0
16	14	20	2	425	85.0	39630.0	-38511.0	-5641533.0
16	14	20	2	425	86.0	64860.0	-38971.0	-5641931.0
16	14	20	2	426	87.0	83676.0	-39437.0	-5641132.0
16	14	20	2	426	89.0	99986.0	-40254.0	-5640741.0
16	14	20	2	426	90.0	101368.0	-40877.0	-5641966.0
16	14	20	2	427	91.0	94224.0	-41404.0	-5641412.0
16	14	20	2	427	92.0	85794.0	-41157.0	-5640714.0
16	14	20	2	428	93.0	73753.0	-41421.0	-5640947.0
16	14	20	2	428	94.0	53036.0	-42270.0	-5642096.0
16	14	20	2	428	95.0	26233.0	-42312.0	-5641518.0
16	14	20	2	445	96.0	1341.0	-42063.0	-5640824.0
16	14	20	2	446	97.0	-21977.0	-40665.0	-5641049.0
16	14	20	2	464	98.0	-39090.0	-39514.0	-5642466.0
16	14	20	2	465	99.0	-47592.0	-39480.0	-5641941.0
16	14	20	2	465	100.0	-41249.0	-39287.0	-5641223.0
16	14	20	2	465	101.0	-27847.0	-39122.0	-5640605.0
16	14	20	2	466	102.0	-17693.0	-39038.0	-5641759.0
16	14	20	2	466	103.0	-14069.0	-39189.0	-5642187.0
16	14	20	2	467	104.0	-5667.0	-39494.0	-5641459.0
16	14	20	2	467	105.0	4766.0	-39380.0	-5640767.0
16	14	20	2	467	106.0	14203.0	-38463.0	-5641795.0
16	14	20	2	468	107.0	20336.0	-38162.0	-5642652.0
16	14	20	2	468	108.0	24847.0	-37911.0	-5641968.0
16	14	20	2	468	109.0	31456.0	-37462.0	-5641274.0
16	14	20	2	469	110.0	41043.0	-36674.0	-5641663.0
16	14	20	2	469	112.0	77902.0	-36349.0	-5642337.0
16	14	20	2	470	113.0	98518.0	-36402.0	-5641572.0
16	14	20	2	470	114.0	124797.0	-36002.0	-5641662.0
16	14	20	2	470	115.0	149890.0	-35368.0	-5643050.0
16	14	20	2	471	116.0	172995.0	-34762.0	-5642642.0
16	14	20	2	471	117.0	181102.0	-33684.0	-5641907.0
16	14	20	2	489	118.0	166873.0	-33215.0	-5641224.0
16	14	20	2	503	119.0	127616.0	-32592.0	-5641964.0
16	14	20	2	503	120.0	76091.0	-31667.0	-5642810.0
16	14	20	2	504	121.0	22088.0	-31152.0	-5642146.0
16	14	20	2	504	122.0	-42462.0	-30613.0	-5641454.0
16	14	20	2	504	123.0	-103287.0	-30247.0	-5642119.0
16	14	20	2	505	124.0	-163339.0	-29637.0	-5642471.0
16	14	20	2	505	125.0	-211633.0	-28984.0	-5641809.0
16	14	20	2	505	126.0	-243582.0	-28531.0	-5641321.0
16	14	20	2	505	127.0	-261626.0	-28159.0	-5642684.0
16	14	20	2	506	128.0	-247006.0	-27176.0	-5642717.0
16	14	20	2	506	129.0	-201567.0	-26384.0	-5642026.0
16	14	20	2	506	130.0	-114141.0	-26132.0	-5641282.0
16	14	20	2	520	131.0	-6629.0	-25254.0	-5642044.0
16	14	20	2	520	132.0	86594.0	-24154.0	-5642571.0
16	14	20	2	520	134.0	-35651.0	-23096.0	-5641213.0
16	14	20	2	521	135.0	-270182.0	-23294.0	-5642236.0
16	14	20	2	521	136.0	-550469.0	-22733.0	-5643010.0
16	14	20	2	521	137.0	-801841.0	-21491.0	-5642364.0
16	14	20	2	522	138.0	-913009.0	-20196.0	-5641621.0
16	14	20	2	522	139.0	-917634.0	-19162.0	-5642356.0
16	14	20	2	550	140.0	-864928.0	-18624.0	-5643122.0
16	14	20	2	550	141.0	-763642.0	-17505.0	-5642469.0
16	14	20	2	551	142.0	-537571.0	-15674.0	-5641706.0
16	14	20	2	551	143.0	-154484.0	-14517.0	-5642415.0
16	14	20	2	551	144.0	329489.0	-13611.0	-5643470.0
16	14	20	2	552	145.0	818823.0	-12036.0	-5642926.0
16	14	20	2	552	146.0	1212416.0	-11362.0	-5642171.0
16	14	20	2	552	147.0	1398212.0	-10570.0	-5641702.0
16	14	20	2	553	148.0	1346421.0	-9549.0	-5642859.0
16	14	20	2	553	149.0	1075073.0	-8309.0	-5643074.0
16	14	20	2	553	150.0	654205.0	-7194.0	-5642268.0
16	14	20	2	554	151.0	170391.0	-6328.0	-5641697.0
16	14	20	2	554	152.0	-237347.0	-5307.0	-5642774.0
16	14	20	2	554	153.0	-537141.0	-4829.0	-5643253.0
16	14	20	2	555	154.0	-745636.0	-4117.0	-5642472.0
16	14	20	2	555	156.0	-715419.0	-1389.0	-5641851.0
16	14	20	2	555	157.0	-488685.0	-1037.0	-5642602.0
16	14	20	2	556	158.0	-205512.0	-666.0	-5642059.0
16	14	20	2	556	159.0	26088.0	233.0	-5641711.0
16	14	20	2	556	160.0	187881.0	1217.0	-5643081.0
16	14	20	2	557	161.0	338791.0	2296.0	-5643027.0
16	14	20	2	557	162.0	520636.0	3184.0	-5642304.0
16	14	20	2	581	163.0	701541.0	3768.0	-5641584.0
16	14	20	2	581	164.0	816955.0	5053.0	-5641949.0
16	14	20	2	581	165.0	864899.0	7473.0	-5642412.0
16	14	20	2	582	166.0	831971.0	8540.0	-5641761.0
16	14	20	2	611	167.0	721628.0	9392.0	-5641159.0
16	14	20	2	611	168.0	547076.0	10295.0	-5642004.0
16	14	20	2	612	169.0	356151.0	11469.0	-5641982.0
16	14	20	2	612	170.0	189308.0	12517.0	-5641371.0
16	14	20	2	612	171.0	61719.0	12614.0	-5642082.0
16	14	20	2	612	172.0	-34692.0	12773.0	-5642740.0
16	14	20	2	613	173.0	-120922.0	13786.0	-5641952.0
16	14	20	2	613	174.0	-201104.0	13781.0	-5641270.0
16	14	20	2	613	175.0	-257661.0	14821.0	-5641834.0
16	14	20	2	614	176.0	-270498.0	15344.0	-5642878.0
16	14	20	2	614	177.0	-248414.0	16323.0	-5642229.0
16	14	20	2	614	179.0	-111972.0	17885.0	-5640905.0
16	14	20	2	614	180.0	-38534.0	17681.0	-5642221.0
16	14	20	2	615	181.0	13747.0	17879.0	-5642557.0
16	14	20	2	615	182.0	35274.0	18041.0	-5641860.0
16	14	20	2	615	183.0	27661.0	18573.0	-5641241.0
16	14	20	2	615	184.0	4091.0	18976.0	-5642388.0
16	14	20	2	641	185.0	-23272.0	19676.0	-5642620.0
16	14	20	2	642	186.0	-39616.0	20383.0	-5641967.0
16	14	20	2	643	187.0	-53614.0	21931.0	-5641236.0
16	14	20	2	644	188.0	-63709.0	22736.0	-5641865.0
16	14	20	2	645	189.0	-66707.0	22743.0	-5642816.0
16	14	20	2	645	190.0	-69256.0	23598.0	-5642209.0
16	14	20	2	646	191.0	-73865.0	23927.0	-5641430.0
16	14	20	2	647	192.0	-79742.0	24395.0	-5641941.0
16	14	20	2	647	193.0	-79932.0	24891.0	-5642997.0
16	14	20	2	648	194.0	-60308.0	24841.0	-5642403.0
16	14	20	2	649	195.0	-34353.0	25156.0	-5641573.0
16	14	20	2	650	196.0	6410.0	25888.0	-5641264.0
16	14	20	2	650	197.0	45469.0	26281.0	-5642629.0
16	14	20	2	652	198.0	90568.0	26634.0	-5642635.0
16	14	20	2	653	199.0	135636.0	26556.0	-5641866.0
16	14	20	2	654	201.0	253051.0	26303.0	-5642054.0
16	14	20	2	655	202.0	316851.0	26369.0	-5642817.0
16	14	20	2	655	203.0	374338.0	25613.0	-5642114.0
16	14	20	2	656	204.0	417541.0	25708.0	-5641654.0
16	14	20	2	657	205.0	492429.0	26355.0	-5643030.0
16	14	20	2	658	206.0	611340.0	26737.0	-5643309.0
16	14	20	2	658	207.0	695744.0	26825.0	-5642576.0
16	14	20	2	670	208.0	777836.0	27074.0	-5641856.0
16	14	20	2	671	209.0	883338.0	27331.0	-5641940.0
16	14	20	2	671	210.0	996471.0	28094.0	-5643212.0
16	14	20	2	672	211.0	1121569.0	28738.0	-5642741.0
16	14	20	2	703	212.0	1178029.0	28852.0	-5642001.0
16	14	20	2	703	213.0	1212474.0	28598.0	-5641667.0
16	14	20	2	703	214.0	1248031.0	29058.0	-5643089.0
16	14	20	2	704	215.0	1238309.0	28974.0	-5643046.0
16	14	20	2	704	216.0	1189049.0	29116.0	-5642297.0
16	14	20	2	704	217.0	1156094.0	29544.0	-5641707.0
16	14	20	2	705	218.0	1104757.0	30159.0	-5642730.0
16	14	20	2	705	219.0	1046119.0	31326.0	-5643183.0
16	14	20	2	705	220.0	947885.0	31647.0	-5642400.0
16	14	20	2	737	221.0	816298.0	32699.0	-5641859.0
16	14	20	2	738	222.0	699641.0	33133.0	-5643029.0
16	14	20	2	738	224.0	482412.0	36259.0	-5642575.0
16	14	20	2	738	225.0	370628.0	37556.0	-5641970.0
16	14	20	2	738	226.0	284524.0	39343.0	-5642690.0
16	14	20	2	739	227.0	184945.0	42243.0	-5643314.0
16	14	20	2	739	228.0	127144.0	45671.0	-5642531.0
16	14	20	2	739	229.0	-4232.0	50349.0	-5641794.0
16	14	20	2	739	230.0	-106881.0	55553.0	-5641679.0
16	14	20	2	740	231.0	-133339.0	60208.0	-5643007.0
16	14	20	2	740	232.0	-222128.0	64761.0	-5642526.0
16	14	20	2	740	233.0	-334777.0	69567.0	-5641760.0
16	14	20	2	740	234.0	-430682.0	75309.0	-5641368.0
16	14	20	2	741	235.0	-502995.0	81012.0	-5642859.0
16	14	20	2	741	236.0	-563807.0	87114.0	-5642764.0
16	14	20	2	741	246.0	-1096281.0	152245.0	-5641445.0
16	14	20	2	741	247.0	-1104291.0	158413.0	-5641437.0
16	14	20	2	742	248.0	-1103572.0	163600.0	-5642784.0
16	14	20	2	742	249.0	-1070173.0	169289.0	-5642496.0
16	14	20	2	742	250.0	-1012449.0	174271.0	-5641713.0
16	14	20	2	742	251.0	-975636.0	178580.0	-5641977.0
16	14	20	2	743	252.0	-940276.0	183338.0	-5643279.0
16	14	20	2	771	253.0	-873812.0	188193.0	-5642844.0
16	14	20	2	772	254.0	-779901.0	193157.0	-5642017.0
16	14	20	2	772	255.0	-699806.0	198054.0	-5641493.0
16	14	20	2	772	0.0	-665381.0	201742.0	-5642499.0
16	14	20	2	772	1.0	-640472.0	204438.0	-5642804.0
16	14	20	2	772	2.0	-593456.0	207284.0	-5642004.0
16	14	20	2	773	3.0	-533967.0	209438.0	-5641394.0
16	14	20	2	773	4.0	-493591.0	211322.0	-5642162.0
16	14	20	2	773	5.0	-458949.0	213489.0	-5642905.0
16	14	20	2	773	6.0	-396512.0	214941.0	-5642141.0
16	14	20	2	774	7.0	-304074.0	216313.0	-5641529.0
16	14	20	2	774	8.0	-221231.0	217218.0	-5642316.0
16	14	20	2	774	9.0	-138142.0	218324.0	-5643076.0
16	14	20	2	774	10.0	-49066.0	218699.0	-5642339.0
16	14	20	2	775	11.0	31594.0	218544.0	-5641674.0
16	14	20	2	775	13.0	250958.0	216636.0	-5642352.0
16	14	20	2	775	14.0	335196.0	213973.0	-5641911.0
16	14	20	2	775	15.0	413144.0	211255.0	-5641436.0
16	14	20	2	775	16.0	480889.0	209046.0	-5642674.0
16	14	20	2	776	17.0	521811.0	206705.0	-5642861.0
16	14	20	2	805	18.0	519086.0	203445.0	-5642100.0
16	14	20	2	806	19.0	478674.0	200045.0	-5641331.0
16	14	20	2	806	20.0	411135.0	196507.0	-5641289.0
16	14	20	2	806	21.0	317397.0	193856.0	-5641923.0
16	14	20	2	806	22.0	176142.0	189524.0	-5641353.0
16	14	20	2	843	23.0	-43867.0	185070.0	-5640992.0
16	14	20	2	843	24.0	-335286.0	179660.0	-5642486.0
16	14	20	2	843	25.0	-649374.0	173961.0	-5642422.0
16	14	20	2	843	26.0	-784425.0	168383.0	-5641681.0
16	14	20	2	844	27.0	-698589.0	162673.0	-5641184.0
16	14	20	2	844	28.0	-510198.0	157189.0	-5642469.0
16	14	20	2	844	29.0	-318176.0	151338.0	-5642651.0
16	14	20	2	844	30.0	-108052.0	144803.0	-5641986.0
16	14	20	2	845	31.0	79298.0	138459.0	-5641272.0
16	14	20	2	845	32.0	206699.0	131558.0	-5641997.0
16	14	20	2	845	33.0	240932.0	124741.0	-5643007.0
16	14	20	2	845	35.0	94118.0	111251.0	-5641594.0
16	14	20	2	845	36.0	-45194.0	103596.0	-5641537.0
16	14	20	2	846	37.0	-184896.0	95688.0	-5642797.0
16	14	20	2	846	38.0	-295414.0	88985.0	-5642478.0
16	14	20	2	846	39.0	-392784.0	82163.0	-5641676.0
16	14	20	2	846	40.0	-481888.0	75303.0	-5641480.0
16	14	20	2	847	41.0	-556759.0	67768.0	-5643021.0
16	14	20	2	882	42.0	-609387.0	60116.0	-5642954.0
16	14	20	2	882	43.0	-633382.0	52956.0	-5642199.0
16	14	20	2	882	44.0	-611717.0	46744.0	-5641851.0
16	14	20	2	882	45.0	-538159.0	39174.0	-5643129.0
16	14	20	2	883	46.0	-416405.0	31994.0	-5643244.0
16	14	20	2	883	47.0	-270727.0	24318.0	-5642467.0
16	14	20	2	883	48.0	-119421.0	16688.0	-5642007.0
16	14	20	2	883	49.0	29119.0	9003.0	-5643128.0
16	14	20	2	884	50.0	172168.0	2163.0	-5643497.0
16	14	20	2	884	51.0	298811.0	-4497.0	-5642664.0
16	14	20	2	884	52.0	390458.0	-11059.0	-5642001.0
16	14	20	2	884	53.0	441716.0	-17467.0	-5642109.0
16	14	20	2	885	54.0	457324.0	-23633.0	-5643696.0
16	14	20	2	885	55.0	440650.0	-29882.0	-5643222.0
16	14	20	2	885	56.0	398519.0	-36632.0	-5642506.0
16	14	20	2	885	58.0	286029.0	-48583.0	-5642897.0
16	14	20	2	885	59.0	240558.0	-55044.0	-5642809.0
16	14	20	2	886	60.0	201975.0	-60712.0	-5642131.0
16	14	20	2	886	61.0	175819.0	-66146.0	-5642107.0
16	14	20	2	886	62.0	169366.0	-71089.0	-5642991.0
16	14	20	2	886	63.0	189278.0	-75646.0	-5642489.0
16	14	20	2	921	64.0	210811.0	-80094.0	-5642027.0
16	14	20	2	921	65.0	237123.0	-84317.0	-5643496.0
16	14	20	2	922	66.0	271752.0	-87541.0	-5643751.0
16	14	20	2	922	67.0	307267.0	-91702.0	-5642949.0
16	14	20	2	922	68.0	337921.0	-94902.0	-5642225.0
16	14	20	2	922	69.0	349249.0	-98622.0	-5642967.0
16	14	20	2	923	70.0	346567.0	-102724.0	-5644132.0
16	14	20	2	923	71.0	333230.0	-106247.0	-5643516.0
16	14	20	2	923	72.0	311552.0	-109423.0	-5642757.0
16	14	20	2	923	73.0	284589.0	-111898.0	-5642346.0
16	14	20	2	923	74.0	262003.0	-114406.0	-5643877.0
16	14	20	2	924	75.0	247689.0	-116556.0	-5644047.0
16	14	20	2	924	76.0	235013.0	-118756.0	-5643262.0
16	14	20	2	924	77.0	226893.0	-120868.0	-5642742.0
16	14	20	2	924	78.0	212944.0	-123239.0	-5643962.0
16	14	20	2	925	80.0	197048.0	-125898.0	-5643601.0
16	14	20	2	925	81.0	208043.0	-127759.0	-5642901.0
16	14	20	2	925	82.0	216216.0	-130104.0	-5643173.0
16	14	20	2	925	83.0	218579.0	-131003.0	-5644311.0
16	14	20	2	926	84.0	214371.0	-131794.0	-5643729.0
16	14	20	2	926	85.0	207941.0	-133006.0	-5643007.0
16	14	20	2	926	86.0	189888.0	-134045.0	-5643093.0
16	14	20	2	958	87.0	160538.0	-134694.0	-5644554.0
16	14	20	2	958	88.0	119842.0	-134319.0	-5644110.0
16	14	20	2	958	89.0	78073.0	-133243.0	-5643389.0
16	14	20	2	959	90.0	44863.0	-133372.0	-5642809.0
16	14	20	2	959	91.0	25571.0	-133646.0	-5643962.0
16	14	20	2	959	92.0	17908.0	-134434.0	-5644391.0
16	14	20	2	959	93.0	20351.0	-134657.0	-5643690.0
16	14	20	2	959	94.0	36699.0	-134486.0	-5642943.0
16	14	20	2	960	95.0	52386.0	-134186.0	-5643682.0
16	14	20	2	960	96.0	56208.0	-133299.0	-5644438.0
16	14	20	2	960	97.0	43942.0	-132596.0	-5643806.0
16	14	20	2	960	98.0	17991.0	-132472.0	-5642977.0
16	14	20	2	961	99.0	-9572.0	-131250.0	-5643081.0
16	14	20	2	961	100.0	-38265.0	-130070.0	-5644403.0
16	14	20	2	961	101.0	-70984.0	-129054.0	-5644035.0
16	14	20	2	961	103.0	-112477.0	-125822.0	-5642852.0
16	14	20	2	962	104.0	-131274.0	-124556.0	-5644042.0
16	14	20	2	962	105.0	-152916.0	-122613.0	-5643991.0
16	14	20	2	962	106.0	-169125.0	-120696.0	-5643170.0
16	14	20	2	962	107.0	-181938.0	-118489.0	-5643031.0
16	14	20	2	963	108.0	-195194.0	-116231.0	-5644246.0
16	14	20	2	993	109.0	-201125.0	-113381.0	-5644002.0
16	14	20	3	30	110.0	-204777.0	-110508.0	-5643181.0
16	14	20	3	63	111.0	-192196.0	-106701.0	-5642637.0
16	14	20	3	64	112.0	-167295.0	-104212.0	-5643576.0
16	14	20	3	64	113.0	-140054.0	-101385.0	-5644018.0
16	14	20	3	64	114.0	-116159.0	-98708.0	-5643244.0
16	14	20	3	64	115.0	-90736.0	-95684.0	-5642579.0
16	14	20	3	65	116.0	-66463.0	-92471.0	-5643133.0
16	14	20	3	65	117.0	-45702.0	-89607.0	-5644199.0
16	14	20	3	65	118.0	-30856.0	-86311.0	-5643499.0
16	14	20	3	65	119.0	-22162.0	-82621.0	-5642810.0
16	14	20	3	66	120.0	-17653.0	-79429.0	-5642407.0
16	14	20	3	66	121.0	-8655.0	-75650.0	-5643906.0
16	14	20	3	66	122.0	-419.0	-71742.0	-5643827.0
16	14	20	3	66	123.0	-7193.0	-68306.0	-5643132.0
16	14	20	3	67	125.0	-25334.0	-61106.0	-5644029.0
16	14	20	3	67	148.0	-42434.0	2384.0	-5643376.0
16	14	20	3	67	149.0	-57514.0	3148.0	-5642676.0
16	14	20	3	67	150.0	-62279.0	4558.0	-5642839.0
16	14	20	3	68	151.0	-59257.0	5614.0	-5643745.0
16	14	20	3	68	152.0	-44050.0	7091.0	-5643195.0
16	14	20	3	68	153.0	-31274.0	8386.0	-5642490.0
16	14	20	3	99	154.0	-18698.0	9730.0	-5643052.0
16	14	20	3	99	155.0	1688.0	10626.0	-5643534.0
16	14	20	3	100	156.0	21042.0	11876.0	-5642880.0
16	14	20	3	100	157.0	27139.0	12624.0	-5642812.0
16	14	20	3	101	158.0	36455.0	13214.0	-5644319.0
16	14	20	3	101	159.0	44761.0	13516.0	-5643949.0
16	14	20	3	101	160.0	57091.0	13530.0	-5643292.0
16	14	20	3	101	161.0	74411.0	13802.0	-5642561.0
16	14	20	3	102	162.0	78029.0	13728.0	-5643385.0
16	14	20	3	102	163.0	67949.0	13204.0	-5643941.0
16	14	20	3	102	164.0	50359.0	13464.0	-5643297.0
16	14	20	3	102	165.0	39681.0	13458.0	-5642513.0
16	14	20	3	103	166.0	25935.0	12846.0	-5643155.0
16	14	20	3	103	167.0	6816.0	12367.0	-5644081.0
16	14	20	3	103	168.0	-15899.0	11253.0	-5643519.0
16	14	20	3	103	170.0	-88975.0	10311.0	-5642525.0
16	14	20	3	104	171.0	-131837.0	8884.0	-5643801.0
16	14	20	3	104	172.0	-166960.0	7434.0	-5643669.0
16	14	20	3	104	173.0	-204209.0	6511.0	-5642857.0
16	14	20	3	104	174.0	-238854.0	5253.0	-5642871.0
16	14	20	3	136	175.0	-264989.0	3988.0	-5644210.0
16	14	20	3	136	176.0	-281963.0	3054.0	-5643907.0
16	14	20	3	137	177.0	-288882.0	2329.0	-5643082.0
16	14	20	3	137	178.0	-281772.0	1686.0	-5642494.0
16	14	20	3	137	179.0	-265276.0	589.0	-5643364.0
16	14	20	3	137	180.0	-245905.0	-802.0	-5643991.0
16	14	20	3	138	181.0	-217678.0	-2287.0	-5643210.0
16	14	20	3	138	182.0	-179311.0	-3941.0	-5642542.0
16	14	20	3	138	183.0	-137267.0	-4992.0	-5642506.0
16	14	20	3	138	184.0	-103011.0	-6393.0	-5643712.0
16	14	20	3	139	185.0	-73235.0	-8163.0	-5643197.0
16	14	20	3	139	186.0	-50362.0	-9862.0	-5642512.0
16	14	20	3	139	187.0	-34872.0	-11157.0	-5642919.0
16	14	20	3	139	188.0	-28992.0	-12720.0	-5644009.0
16	14	20	3	140	189.0	-44956.0	-13959.0	-5643365.0
16	14	20	3	140	193.0	68636.0	-20124.0	-5643569.0
16	14	20	3	140	194.0	86362.0	-22306.0	-5642856.0
16	14	20	3	140	195.0	106373.0	-23855.0	-5642161.0
16	14	20	3	141	196.0	127597.0	-25178.0	-5643374.0
16	14	20	3	141	197.0	153511.0	-26546.0	-5643843.0
16	14	20	3	141	198.0	169163.0	-27792.0	-5643146.0
16	14	20	3	172	199.0	179628.0	-29113.0	-5642381.0
16	14	20	3	172	200.0	180281.0	-29577.0	-5642985.0
16	14	20	3	172	201.0	177891.0	-30167.0	-5643844.0
16	14	20	3	173	202.0	175139.0	-31245.0	-5643248.0
16	14	20	3	173	203.0	167561.0	-32669.0	-5642532.0
16	14	20	3	173	204.0	161022.0	-34579.0	-5642894.0
16	14	20	3	174	205.0	156890.0	-36029.0	-5643722.0
16	14	20	3	174	206.0	153200.0	-36524.0	-5643109.0
16	14	20	3	174	207.0	131680.0	-37532.0	-5642324.0
16	14	20	3	174	208.0	117836.0	-38743.0	-5642574.0
16	14	20	3	175	209.0	99033.0	-39673.0	-5643814.0
16	14	20	3	175	210.0	83308.0	-39834.0	-5643337.0
16	14	20	3	206	211.0	80378.0	-40927.0	-5642537.0
16	14	20	3	206	212.0	83674.0	-41991.0	-5642072.0
16	14	20	3	206	213.0	85315.0	-42771.0	-5643282.0
16	14	20	3	206	215.0	57773.0	-44614.0	-5642697.0
16	14	20	3	207	216.0	27873.0	-45574.0	-5642407.0
16	14	20	3	207	217.0	-2252.0	-46310.0	-5643839.0
16	14	20	3	207	218.0	-40687.0	-47146.0	-5643800.0
16	14	20	3	207	219.0	-71816.0	-47479.0	-5643053.0
16	14	20	3	208	220.0	-99113.0	-47896.0	-5642350.0
16	14	20	3	245	221.0	-116434.0	-48078.0	-5643043.0
16	14	20	3	245	222.0	-123952.0	-48009.0	-5643824.0
16	14	20	3	246	223.0	-128116.0	-47773.0	-5643151.0
16	14	20	3	246	224.0	-128210.0	-47467.0	-5642380.0
16	14	20	3	246	225.0	-121614.0	-47325.0	-5642469.0
16	14	20	3	247	226.0	-107887.0	-47263.0	-5643466.0
16	14	20	3	247	227.0	-104894.0	-47285.0	-5642911.0
16	14	20	3	247	228.0	-107437.0	-47414.0	-5642162.0
16	14	20	3	247	229.0	-100255.0	-47304.0	-5641815.0
16	14	20	3	248	230.0	-97939.0	-47052.0	-5643107.0
16	14	20	3	248	231.0	-96622.0	-47374.0	-5643029.0
16	14	20	3	248	232.0	-100751.0	-46949.0	-5642262.0
16	14	20	3	248	233.0	-106581.0	-46574.0	-5641671.0
16	14	20	3	249	234.0	-109287.0	-47182.0	-5642814.0
16	14	20	3	249	235.0	-107471.0	-47174.0	-5643351.0
16	14	20	3	249	237.0	-86006.0	-46302.0	-5641997.0
16	14	20	3	249	238.0	-72695.0	-45950.0	-5642912.0
16	14	20	3	250	239.0	-59032.0	-45732.0	-5643524.0
16	14	20	3	250	240.0	-39957.0	-45386.0	-5642774.0
16	14	20	3	250	241.0	-20355.0	-44574.0	-5642084.0
16	14	20	3	250	242.0	-1731.0	-43790.0	-5642439.0
16	14	20	3	251	243.0	24046.0	-43353.0	-5643756.0
16	14	20	3	285	244.0	41001.0	-43036.0	-5643197.0
16	14	20	3	285	245.0	56125.0	-42248.0	-5642491.0
16	14	20	3	286	246.0	73065.0	-40576.0	-5642198.0
16	14	20	3	286	247.0	86524.0	-40089.0	-5643665.0
16	14	20	3	286	248.0	97806.0	-39954.0	-5643472.0
16	14	20	3	286	249.0	107683.0	-39386.0	-5642749.0
16	14	20	3	287	250.0	117916.0	-38288.0	-5642156.0
16	14	20	3	287	251.0	143287.0	-37650.0	-5642934.0
16	14	20	3	287	252.0	205252.0	-37101.0	-5643017.0
16	14	20	3	288	253.0	240970.0	-36275.0	-5642339.0
16	14	20	3	288	254.0	243251.0	-35706.0	-5642516.0
16	14	20	3	288	255.0	222651.0	-35611.0	-5643861.0
16	14	20	3	288	0.0	198976.0	-34595.0	-5643302.0
16	14	20	3	289	1.0	163636.0	-33601.0	-5642605.0
16	14	20	3	289	2.0	118041.0	-32748.0	-5642410.0
16	14	20	3	289	4.0	2772.0	-31221.0	-5643669.0
16	14	20	3	331	5.0	-43829.0	-31803.0	-5642979.0
16	14	20	3	332	6.0	-71921.0	-31201.0	-5642268.0
16	14	20	3	332	7.0	-96566.0	-30216.0	-5643272.0
16	14	20	3	332	8.0	-126821.0	-29262.0	-5644047.0
16	14	20	3	332	9.0	-145872.0	-28257.0	-5643388.0
16	14	20	3	333	10.0	-150942.0	-27260.0	-5642646.0
16	14	20	3	333	11.0	-130514.0	-25306.0	-5643543.0
16	14	20	3	333	12.0	-68866.0	-24148.0	-5644257.0
16	14	20	3	333	13.0	23044.0	-22929.0	-5643626.0
16	14	20	3	334	14.0	126792.0	-21586.0	-5642849.0
16	14	20	3	334	15.0	200052.0	-20660.0	-5643027.0
16	14	20	3	334	16.0	175422.0	-19739.0	-5644406.0
16	14	20	3	334	17.0	-30845.0	-19034.0	-5643979.0
16	14	20	3	335	18.0	-326921.0	-18132.0	-5643161.0
16	14	20	3	335	19.0	-666926.0	-17456.0	-5642675.0
16	14	20	3	335	20.0	-963241.0	-16720.0	-5643867.0
16	14	20	3	336	27.0	164374.0	-9726.0	-5642961.0
16	14	20	3	336	28.0	735766.0	-9411.0	-5644527.0
16	14	20	3	336	29.0	1215416.0	-8486.0	-5644412.0
16	14	20	3	336	30.0	1465308.0	-7516.0	-5643707.0
16	14	20	3	337	31.0	1441072.0	-6730.0	-5643018.0
16	14	20	3	337	32.0	1182558.0	-5682.0	-5643656.0
16	14	20	3	379	33.0	754359.0	-4689.0	-5643977.0
16	14	20	3	380	34.0	261862.0	-3276.0	-5643277.0
16	14	20	3	380	35.0	-164634.0	-906.0	-5642611.0
16	14	20	3	380	36.0	-517873.0	-282.0	-5644023.0
16	14	20	3	381	37.0	-781366.0	173.0	-5644421.0
16	14	20	3	381	38.0	-873863.0	1488.0	-5643737.0
16	14	20	3	381	39.0	-803956.0	2243.0	-5642992.0
16	14	20	3	381	40.0	-590027.0	3089.0	-5643936.0
16	14	20	3	382	41.0	-313781.0	4394.0	-5644687.0
16	14	20	3	382	42.0	-50568.0	5316.0	-5644065.0
16	14	20	3	382	43.0	159593.0	6024.0	-5643306.0
16	14	20	3	382	44.0	351873.0	7252.0	-5643715.0
16	14	20	3	383	45.0	539531.0	7849.0	-5644874.0
16	14	20	3	383	46.0	700462.0	8675.0	-5644381.0
16	14	20	3	383	47.0	803040.0	9822.0	-5643541.0
16	14	20	3	383	49.0	771858.0	11396.0	-5644807.0
16	14	20	3	384	50.0	652201.0	11681.0	-5644401.0
16	14	20	3	384	51.0	497310.0	11595.0	-5643530.0
16	14	20	3	384	52.0	323131.0	12084.0	-5643105.0
16	14	20	3	384	53.0	163278.0	13110.0	-5644000.0
16	14	20	3	384	54.0	41348.0	13637.0	-5643947.0
16	14	20	3	430	55.0	-48009.0	14706.0	-5643144.0
16	14	20	3	430	56.0	-105717.0	15863.0	-5642474.0
16	14	20	3	431	57.0	-152315.0	17212.0	-5643140.0
16	14	20	3	431	58.0	-174292.0	17607.0	-5644345.0
16	14	20	3	431	59.0	-162074.0	17852.0	-5643677.0
16	14	20	3	432	60.0	-133534.0	18453.0	-5643057.0
16	14	20	3	432	61.0	-84427.0	18618.0	-5643807.0
16	14	20	3	432	62.0	-23185.0	18847.0	-5644542.0
16	14	20	3	481	63.0	29219.0	19616.0	-5643810.0
16	14	20	3	481	64.0	66469.0	20531.0	-5643146.0
16	14	20	3	481	65.0	85553.0	21058.0	-5642972.0
16	14	20	3	482	66.0	81681.0	21250.0	-5644502.0
16	14	20	3	482	67.0	68561.0	21913.0	-5644124.0
16	14	20	3	482	68.0	51251.0	22666.0	-5643397.0
16	14	20	3	482	69.0	38075.0	22876.0	-5642720.0
16	14	20	3	483	71.0	34043.0	24141.0	-5644426.0
16	14	20	3	483	72.0	34114.0	24465.0	-5643757.0
16	14	20	3	483	73.0	29438.0	23734.0	-5642990.0
16	14	20	3	483	74.0	18638.0	24359.0	-5643608.0
16	14	20	3	483	75.0	-7268.0	25831.0	-5644821.0
16	14	20	3	484	76.0	-24832.0	26407.0	-5644301.0
16	14	20	3	484	77.0	-41047.0	26145.0	-5643523.0
16	14	20	3	484	78.0	-59459.0	25401.0	-5643543.0
16	14	20	3	484	94.0	-62836.0	23632.0	-5643981.0
16	14	20	3	485	95.0	-69832.0	22404.0	-5643606.0
16	14	20	3	485	96.0	-76357.0	22155.0	-5644979.0
16	14	20	3	485	97.0	-67774.0	22234.0	-5644896.0
16	14	20	3	485	98.0	-56377.0	22424.0	-5644129.0
16	14	20	3	486	99.0	-41445.0	22804.0	-5643576.0
16	14	20	3	486	100.0	-23650.0	22816.0	-5644869.0
16	14	20	3	486	101.0	1404.0	23673.0	-5645089.0
16	14	20	3	531	102.0	19112.0	25187.0	-5644345.0
16	14	20	3	531	103.0	25073.0	25693.0	-5643620.0
16	14	20	3	532	104.0	27201.0	26546.0	-5644136.0
16	14	20	3	532	105.0	35174.0	27767.0	-5644936.0
16	14	20	3	532	106.0	49000.0	29136.0	-5644276.0
16	14	20	3	533	107.0	69245.0	30393.0	-5643566.0
16	14	20	3	533	108.0	98080.0	32529.0	-5644259.0
16	14	20	3	533	109.0	134521.0	34614.0	-5645110.0
16	14	20	3	534	110.0	174774.0	36832.0	-5644424.0
16	14	20	3	534	111.0	204886.0	39924.0	-5643701.0
16	14	20	3	534	112.0	220950.0	43371.0	-5643519.0
16	14	20	3	534	113.0	209771.0	47885.0	-5644896.0
16	14	20	3	535	114.0	189133.0	52929.0	-5644614.0
16	14	20	3	535	116.0	153939.0	62958.0	-5643136.0
16	14	20	3	535	117.0	134791.0	68132.0	-5643579.0
16	14	20	3	535	118.0	104533.0	72925.0	-5644155.0
16	14	20	3	535	119.0	60675.0	78401.0	-5643495.0
16	14	20	3	536	120.0	14289.0	85388.0	-5643402.0
16	14	20	3	536	121.0	-28617.0	91773.0	-5644801.0
16	14	20	3	536	122.0	-75944.0	98476.0	-5644380.0
16	14	20	3	536	139.0	-144842.0	191271.0	-5644203.0
16	14	20	3	537	140.0	-102132.0	193805.0	-5643433.0
16	14	20	3	581	141.0	-57073.0	196513.0	-5643552.0
16	14	20	3	581	142.0	-24528.0	199809.0	-5644806.0
16	14	20	3	582	143.0	6013.0	202359.0	-5644416.0
16	14	20	3	582	144.0	37953.0	204424.0	-5643603.0
16	14	20	3	582	145.0	75741.0	206127.0	-5643284.0
16	14	20	3	583	146.0	116299.0	207088.0	-5644573.0
16	14	20	3	583	147.0	175145.0	208401.0	-5644554.0
16	14	20	3	583	148.0	247809.0	209132.0	-5643734.0
16	14	20	3	584	149.0	315590.0	208710.0	-5643230.0
16	14	20	3	584	150.0	386064.0	208124.0	-5644447.0
16	14	20	3	584	151.0	440852.0	207859.0	-5644888.0
16	14	20	3	584	152.0	487953.0	206989.0	-5644121.0
16	14	20	3	585	153.0	526629.0	205487.0	-5643431.0
16	14	20	3	585	154.0	548348.0	203423.0	-5643331.0
16	14	20	3	585	155.0	542774.0	201658.0	-5644726.0
16	14	20	3	586	156.0	523524.0	199695.0	-5644346.0
16	14	20	3	586	157.0	473208.0	196469.0	-5643622.0
16	14	20	3	586	158.0	401821.0	192584.0	-5643639.0
16	14	20	3	586	159.0	299650.0	188892.0	-5644351.0
16	14	20	3	587	161.0	-71172.0	181055.0	-5643084.0
16	14	20	3	587	162.0	-362560.0	175863.0	-5643953.0
16	14	20	3	587	163.0	-699437.0	170369.0	-5644628.0
16	14	20	3	587	164.0	-873261.0	165378.0	-5643954.0
16	14	20	3	588	165.0	-826939.0	159983.0	-5643214.0
16	14	20	3	588	166.0	-646465.0	154591.0	-5643114.0
16	14	20	3	588	167.0	-453469.0	148551.0	-5644267.0
16	14	20	3	632	168.0	-231634.0	142792.0	-5643894.0
16	14	20	3	632	169.0	3202.0	137088.0	-5643147.0
16	14	20	3	632	170.0	182412.0	131540.0	-5643286.0
16	14	20	3	633	171.0	261029.0	124584.0	-5644701.0
16	14	20	3	633	172.0	240593.0	117854.0	-5644346.0
16	14	20	3	633	173.0	148741.0	111583.0	-5643565.0
16	14	20	3	633	174.0	26481.0	105029.0	-5643199.0
16	14	20	3	634	175.0	-72123.0	97854.0	-5644570.0
16	14	20	3	634	176.0	-173947.0	90649.0	-5644705.0
16	14	20	3	634	177.0	-278523.0	84296.0	-5643885.0
16	14	20	3	634	178.0	-365216.0	77402.0	-5643381.0
16	14	20	3	635	179.0	-447111.0	70691.0	-5644546.0
16	14	20	3	635	180.0	-521188.0	63436.0	-5644950.0
16	14	20	3	635	181.0	-578266.0	56504.0	-5644161.0
16	14	20	3	635	182.0	-607977.0	49524.0	-5643499.0
16	14	20	3	636	184.0	-509337.0	34902.0	-5645324.0
16	14	20	3	636	185.0	-379561.0	26751.0	-5644771.0
16	14	20	3	636	186.0	-241321.0	19825.0	-5644065.0
16	14	20	3	637	187.0	-110256.0	13012.0	-5643937.0
16	14	20	3	637	188.0	-8240.0	6346.0	-5645630.0
16	14	20	3	637	189.0	66351.0	-399.0	-5645362.0
16	14	20	3	689	190.0	116944.0	-7193.0	-5644684.0
16	14	20	3	689	191.0	137966.0	-13592.0	-5644204.0
16	14	20	3	690	192.0	137000.0	-18864.0	-5645529.0
16	14	20	3	690	193.0	110091.0	-25316.0	-5645551.0
16	14	20	3	690	194.0	71711.0	-31634.0	-5644901.0
16	14	20	3	690	195.0	20557.0	-37399.0	-5644079.0
16	14	20	3	691	196.0	-32933.0	-42941.0	-5644216.0
16	14	20	3	691	197.0	-59248.0	-48629.0	-5645548.0
16	14	20	3	691	198.0	-57937.0	-54244.0	-5645144.0
16	14	20	3	692	199.0	-28327.0	-59664.0	-5644326.0
16	14	20	3	692	200.0	13602.0	-64850.0	-5644169.0
16	14	20	3	692	201.0	68886.0	-69846.0	-5645357.0
16	14	20	3	692	202.0	129279.0	-74554.0	-5645131.0
16	14	20	3	693	203.0	193820.0	-79384.0	-5644386.0
16	14	20	3	693	204.0	264873.0	-83799.0	-5644043.0
16	14	20	3	693	206.0	373545.0	-91118.0	-5645386.0
16	14	20	3	694	207.0	424237.0	-95424.0	-5644554.0
16	14	20	3	694	208.0	450518.0	-99531.0	-5644153.0
16	14	20	3	694	209.0	469176.0	-102507.0	-5645351.0
16	14	20	3	694	210.0	465095.0	-105147.0	-5645436.0
16	14	20	3	695	211.0	460414.0	-107892.0	-5644612.0
16	14	20	3	695	212.0	466821.0	-110678.0	-5643965.0
16	14	20	3	750	213.0	466857.0	-113170.0	-5644559.0
16	14	20	3	751	214.0	451166.0	-114829.0	-5645646.0
16	14	20	3	751	215.0	427474.0	-116586.0	-5644952.0
16	14	20	3	752	216.0	411475.0	-118759.0	-5644268.0
16	14	20	3	806	217.0	388666.0	-120174.0	-5643921.0
16	14	20	3	806	218.0	370901.0	-121789.0	-5644933.0
16	14	20	3	806	219.0	351053.0	-122860.0	-5644584.0
16	14	20	3	807	220.0	321148.0	-124134.0	-5644234.0
16	14	20	3	807	221.0	278848.0	-125410.0	-5645726.0
16	14	20	3	808	222.0	215029.0	-126266.0	-5645875.0
16	14	20	3	808	223.0	142130.0	-127505.0	-5645120.0
16	14	20	3	808	224.0	67952.0	-128082.0	-5644394.0
16	14	20	3	808	225.0	-6332.0	-129184.0	-5644706.0
16	14	20	3	809	226.0	-84817.0	-130162.0	-5645622.0
16	14	20	3	809	227.0	-154227.0	-130867.0	-5644951.0
16	14	20	3	809	251.0	142125.0	-98927.0	-5645811.0
16	14	20	3	810	252.0	130980.0	-96371.0	-5645417.0
16	14	20	3	810	253.0	118031.0	-93596.0	-5644708.0
16	14	20	3	810	254.0	89219.0	-90319.0	-5644190.0
16	14	20	3	810	255.0	49179.0	-87165.0	-5645458.0
16	14	20	3	811	0.0	5124.0	-83755.0	-5645574.0
16	14	20	3	811	1.0	-43903.0	-80102.0	-5644839.0
16	14	20	3	811	2.0	-77163.0	-76809.0	-5644176.0
16	14	20	3	812	3.0	-90049.0	-73096.0	-5644961.0
16	14	20	3	812	4.0	-83321.0	-68836.0	-5645204.0
16	14	20	3	812	5.0	-64291.0	-64980.0	-5644542.0
16	14	20	3	813	6.0	-41773.0	-61051.0	-5643883.0
16	14	20	3	813	7.0	-41122.0	-57399.0	-5644885.0
16	14	20	3	813	8.0	-46112.0	-53985.0	-5645206.0
16	14	20	3	813	9.0	-48662.0	-50861.0	-5644521.0
16	14	20	3	814	10.0	-55795.0	-47801.0	-5643918.0
16	14	20	3	814	11.0	-68657.0	-44468.0	-5645187.0
16	14	20	3	814	12.0	-70802.0	-40748.0	-5645489.0
16	14	20	3	815	13.0	-70339.0	-37382.0	-5644789.0
16	14	20	3	815	14.0	-64737.0	-34566.0	-5644051.0
16	14	20	3	815	15.0	-63348.0	-31491.0	-5644862.0
16	14	20	3	816	18.0	-48301.0	-21597.0	-5644252.0
16	14	20	3	861	19.0	-52950.0	-19506.0	-5644227.0
16	14	20	3	862	20.0	-59722.0	-16830.0	-5645481.0
16	14	20	3	862	21.0	-62014.0	-13884.0	-5645157.0
16	14	20	3	862	22.0	-60104.0	-10981.0	-5644369.0
16	14	20	3	863	23.0	-48840.0	-8197.0	-5644246.0
16	14	20	3	863	24.0	-52496.0	-4277.0	-5645598.0
16	14	20	3	863	25.0	-56243.0	-1884.0	-5645363.0
16	14	20	3	863	26.0	-57960.0	542.0	-5644546.0
16	14	20	3	864	27.0	-63178.0	2841.0	-5644119.0
16	14	20	3	864	28.0	-55405.0	4699.0	-5645354.0
16	14	20	3	864	29.0	-49447.0	6309.0	-5645581.0
16	14	20	3	865	30.0	-30657.0	8531.0	-5644832.0
16	14	20	3	865	31.0	-8982.0	9759.0	-5644202.0
16	14	20	3	865	32.0	12249.0	10693.0	-5645056.0
16	14	20	3	865	33.0	42696.0	12115.0	-5645569.0
16	14	20	3	866	40.0	109404.0	18572.0	-5643862.0
16	14	20	3	866	41.0	103107.0	18181.0	-5645100.0
16	14	20	3	866	42.0	91994.0	17613.0	-5644958.0
16	14	20	3	866	43.0	67550.0	17243.0	-5644207.0
16	14	20	3	867	44.0	31058.0	17228.0	-5644072.0
16	14	20	3	867	45.0	-10364.0	17423.0	-5645632.0
16	14	20	3	919	46.0	-63197.0	17234.0	-5645391.0
16	14	20	3	920	47.0	-116929.0	17014.0	-5644672.0
16	14	20	3	920	48.0	-168047.0	17736.0	-5644070.0
16	14	20	3	921	49.0	-210955.0	16702.0	-5645336.0
16	14	20	3	921	50.0	-246540.0	15777.0	-5645892.0
16	14	20	3	921	51.0	-282046.0	15291.0	-5645105.0
16	14	20	3	921	52.0	-300581.0	14133.0	-5644322.0
16	14	20	3	922	53.0	-302954.0	13139.0	-5644820.0
16	14	20	3	922	54.0	-292535.0	12443.0	-5645938.0
16	14	20	3	922	55.0	-263826.0	11481.0	-5645360.0
16	14	20	3	923	56.0	-212447.0	10445.0	-5644621.0
16	14	20	3	923	57.0	-140031.0	9299.0	-5644343.0
16	14	20	3	923	58.0	-60069.0	8488.0	-5645938.0
16	14	20	3	923	59.0	15779.0	7581.0	-5645972.0
16	14	20	3	924	60.0	79001.0	5636.0	-5645234.0
16	14	20	3	924	62.0	151844.0	2069.0	-5646108.0
16	14	20	3	924	63.0	164819.0	244.0	-5646176.0
16	14	20	3	925	64.0	169074.0	-1779.0	-5645444.0
16	14	20	3	925	65.0	156712.0	-2604.0	-5644773.0
16	14	20	3	925	66.0	119508.0	-4116.0	-5645359.0
16	14	20	3	926	67.0	72888.0	-5746.0	-5645817.0
16	14	20	3	926	68.0	25451.0	-7087.0	-5645159.0
16	14	20	3	982	69.0	-24483.0	-8117.0	-5644461.0
16	14	20	3	982	70.0	-76159.0	-9799.0	-5645143.0
16	14	20	3	982	71.0	-118782.0	-10361.0	-5645286.0
16	14	20	3	983	72.0	-156672.0	-11722.0	-5644619.0
16	14	20	3	983	73.0	-191583.0	-13619.0	-5645040.0
16	14	20	3	983	74.0	-216821.0	-14866.0	-5646182.0
16	14	20	3	983	75.0	-231488.0	-16816.0	-5645561.0
16	14	20	3	984	76.0	-232991.0	-18736.0	-5644886.0
16	14	20	3	984	77.0	-219706.0	-19923.0	-5644686.0
16	14	20	3	984	78.0	-189014.0	-21224.0	-5646117.0
16	14	20	3	984	79.0	-150781.0	-22731.0	-5645797.0
16	14	20	3	985	80.0	-111415.0	-24245.0	-5645105.0
16	14	20	3	985	81.0	-77948.0	-25491.0	-5644641.0
16	14	20	3	985	82.0	-44518.0	-26228.0	-5646146.0
16	14	20	3	985	83.0	-14278.0	-28049.0	-5646191.0
16	14	20	3	986	85.0	15125.0	-30143.0	-5644721.0
16	14	20	3	986	86.0	15297.0	-31963.0	-5645427.0
16	14	20	3	986	87.0	12884.0	-33519.0	-5646388.0
16	14	20	3	987	88.0	19649.0	-34276.0	-5645792.0
16	14	20	3	987	89.0	25517.0	-35460.0	-5644974.0
16	14	20	3	987	90.0	31872.0	-36113.0	-5645185.0
16	14	20	3	987	91.0	34132.0	-37551.0	-5646336.0
16	14	20	3	988	92.0	24146.0	-38768.0	-5645848.0
16	14	20	3	988	93.0	6748.0	-38319.0	-5645094.0
16	14	20	3	988	94.0	-9312.0	-39319.0	-5645405.0
16	14	20	4	56	95.0	-8487.0	-40366.0	-5646446.0
16	14	20	4	56	96.0	-9479.0	-41112.0	-5645917.0
16	14	20	4	57	97.0	-12549.0	-42292.0	-5645147.0
16	14	20	4	57	98.0	-16643.0	-42948.0	-5645129.0
16	14	20	4	58	99.0	-22477.0	-43367.0	-5646474.0
16	14	20	4	58	100.0	-32612.0	-44092.0	-5646140.0
16	14	20	4	59	101.0	-41769.0	-44655.0	-5645338.0
16	14	20	4	59	102.0	-61074.0	-45537.0	-5644832.0
16	14	20	4	60	103.0	-86992.0	-46446.0	-5646021.0
16	14	20	4	60	104.0	-107459.0	-46412.0	-5646219.0
16	14	20	4	61	105.0	-117033.0	-46516.0	-5645418.0
16	14	20	4	61	107.0	-108646.0	-47212.0	-5644946.0
16	14	20	4	62	108.0	-95211.0	-47424.0	-5645514.0
16	14	20	4	62	109.0	-77664.0	-48608.0	-5644881.0
16	14	20	4	62	110.0	-53869.0	-48226.0	-5644679.0
16	14	20	4	63	111.0	-33338.0	-47644.0	-5646127.0
16	14	20	4	63	130.0	27593.0	-39681.0	-5644771.0
16	14	20	4	64	131.0	-1021.0	-39841.0	-5645358.0
16	14	20	4	64	132.0	-40695.0	-39491.0	-5644610.0
16	14	20	4	65	133.0	-95322.0	-38741.0	-5643879.0
16	14	20	4	65	134.0	-161699.0	-37735.0	-5644337.0
16	14	20	4	65	135.0	-242020.0	-37077.0	-5644699.0
16	14	20	4	66	136.0	-331634.0	-36486.0	-5644034.0
16	14	20	4	118	137.0	-418894.0	-35477.0	-5643429.0
16	14	20	4	119	138.0	-489157.0	-34401.0	-5644248.0
16	14	20	4	119	139.0	-530242.0	-32699.0	-5644233.0
16	14	20	4	119	140.0	-541242.0	-31864.0	-5643667.0
16	14	20	4	120	141.0	-530562.0	-31160.0	-5644664.0
16	14	20	4	120	142.0	-500051.0	-30459.0	-5645136.0
16	14	20	4	120	143.0	-456067.0	-29964.0	-5644410.0
16	14	20	4	121	144.0	-380582.0	-28779.0	-5643724.0
16	14	20	4	121	145.0	-260929.0	-28101.0	-5643578.0
16	14	20	4	121	146.0	-103820.0	-27637.0	-5644527.0
16	14	20	4	121	147.0	61411.0	-26742.0	-5644026.0
16	14	20	4	122	148.0	196352.0	-25830.0	-5643480.0
16	14	20	4	122	149.0	246603.0	-24979.0	-5644789.0
16	14	20	4	122	150.0	125311.0	-24235.0	-5645179.0
16	14	20	4	123	151.0	-127234.0	-22621.0	-5644376.0
16	14	20	4	123	152.0	-398272.0	-21567.0	-5643611.0
16	14	20	4	123	153.0	-641321.0	-20963.0	-5643939.0
16	14	20	4	123	154.0	-776436.0	-20119.0	-5644660.0
16	14	20	4	124	155.0	-821236.0	-19519.0	-5644074.0
16	14	20	4	124	156.0	-802591.0	-17938.0	-5643444.0
16	14	20	4	124	157.0	-714940.0	-16455.0	-5644694.0
16	14	20	4	125	158.0	-513622.0	-15356.0	-5645227.0
16	14	20	4	125	159.0	-171967.0	-14035.0	-5644569.0
16	14	20	4	125	160.0	285539.0	-12199.0	-5643844.0
16	14	20	4	125	161.0	773231.0	-9815.0	-5644372.0
16	14	20	4	176	162.0	1154552.0	-8366.0	-5645713.0
16	14	20	4	176	163.0	1297599.0	-7284.0	-5645182.0
16	14	20	4	177	164.0	1180374.0	-6268.0	-5644374.0
16	14	20	4	177	165.0	876323.0	-5131.0	-5643902.0
16	14	20	4	177	166.0	463813.0	-3934.0	-5645216.0
16	14	20	4	178	167.0	-5524.0	-3155.0	-5645474.0
16	14	20	4	178	168.0	-488239.0	-2172.0	-5644645.0
16	14	20	4	178	169.0	-865096.0	-736.0	-5643929.0
16	14	20	4	179	170.0	-978711.0	-302.0	-5644586.0
16	14	20	4	179	171.0	-806096.0	855.0	-5645471.0
16	14	20	4	179	172.0	-485889.0	1832.0	-5644801.0
16	14	20	4	180	173.0	-153619.0	3093.0	-5644253.0
16	14	20	4	180	175.0	490784.0	5224.0	-5646055.0
16	14	20	4	180	176.0	828903.0	5504.0	-5645362.0
16	14	20	4	180	177.0	1092611.0	6916.0	-5644707.0
16	14	20	4	181	197.0	77383.0	22269.0	-5645471.0
16	14	20	4	181	198.0	158724.0	22431.0	-5644734.0
16	14	20	4	181	199.0	221157.0	22260.0	-5644948.0
16	14	20	4	182	200.0	266053.0	23412.0	-5646161.0
16	14	20	4	182	201.0	294005.0	23607.0	-5645657.0
16	14	20	4	182	202.0	317605.0	23442.0	-5644905.0
16	14	20	4	183	203.0	313669.0	23867.0	-5645398.0
16	14	20	4	245	204.0	291234.0	24538.0	-5646512.0
16	14	20	4	245	205.0	247926.0	25740.0	-5645886.0
16	14	20	4	245	206.0	205324.0	27176.0	-5645136.0
16	14	20	4	246	207.0	163201.0	27741.0	-5644676.0
16	14	20	4	246	208.0	121802.0	27891.0	-5645904.0
16	14	20	4	246	209.0	83733.0	28070.0	-5645914.0
16	14	20	4	247	210.0	57573.0	28161.0	-5645155.0
16	14	20	4	247	211.0	41089.0	27729.0	-5644389.0
16	14	20	4	247	212.0	43239.0	27622.0	-5644867.0
16	14	20	4	247	213.0	53302.0	27417.0	-5645481.0
16	14	20	4	248	214.0	72466.0	27136.0	-5644867.0
16	14	20	4	248	215.0	92609.0	28025.0	-5644228.0
16	14	20	4	248	216.0	114860.0	28794.0	-5644959.0
16	14	20	4	249	217.0	136822.0	28475.0	-5645026.0
16	14	20	4	249	218.0	155302.0	28571.0	-5644384.0
16	14	20	4	249	220.0	82859.0	27967.0	-5646097.0
16	14	20	4	250	221.0	203844.0	27053.0	-5645427.0
16	14	20	4	250	222.0	175865.0	26282.0	-5644688.0
16	14	20	4	250	223.0	88008.0	26053.0	-5644322.0
16	14	20	4	251	224.0	37003.0	25832.0	-5645024.0
16	14	20	4	251	225.0	-1001.0	25996.0	-5644543.0
16	14	20	4	251	226.0	34007.0	25754.0	-5643815.0
16	14	20	4	251	227.0	81647.0	26026.0	-5643977.0
16	14	20	4	252	228.0	112973.0	26567.0	-5645008.0
16	14	20	4	252	229.0	130839.0	25806.0	-5644447.0
16	14	20	4	252	230.0	127473.0	25724.0	-5643742.0
16	14	20	4	252	231.0	113458.0	25438.0	-5644241.0
16	14	20	4	253	232.0	100883.0	25082.0	-5644647.0
16	14	20	4	253	233.0	94050.0	24845.0	-5644013.0
16	14	20	4	317	234.0	83128.0	24336.0	-5643979.0
16	14	20	4	317	235.0	61317.0	24832.0	-5645511.0
16	14	20	4	318	236.0	41117.0	25700.0	-5645126.0
16	14	20	4	318	237.0	21669.0	26339.0	-5644417.0
16	14	20	4	318	238.0	-4934.0	27176.0	-5643818.0
16	14	20	4	319	239.0	-31947.0	27848.0	-5645033.0
16	14	20	4	319	240.0	-60007.0	28626.0	-5645271.0
16	14	20	4	319	242.0	-111405.0	32946.0	-5643818.0
16	14	20	4	319	243.0	-133505.0	34731.0	-5644766.0
16	14	20	4	320	244.0	-149335.0	36716.0	-5645231.0
16	14	20	4	320	245.0	-166327.0	39805.0	-5644585.0
16	14	20	4	320	246.0	-181268.0	43100.0	-5643826.0
16	14	20	4	321	247.0	-181615.0	46999.0	-5644277.0
16	14	20	4	321	248.0	-174614.0	50733.0	-5645472.0
16	14	20	4	321	249.0	-168124.0	55374.0	-5644972.0
16	14	20	4	322	250.0	-163445.0	60752.0	-5644152.0
16	14	20	4	322	251.0	-167982.0	65950.0	-5644424.0
16	14	20	4	322	252.0	-169498.0	70740.0	-5645430.0
16	14	20	4	322	253.0	-158774.0	76522.0	-5644902.0
16	14	20	4	322	254.0	-137617.0	82441.0	-5644101.0
16	14	20	4	323	255.0	-122547.0	88642.0	-5644039.0
16	14	20	4	323	0.0	-113385.0	94350.0	-5645495.0
16	14	20	4	323	1.0	-103559.0	100516.0	-5645292.0
16	14	20	4	323	2.0	-88774.0	107275.0	-5644471.0
16	14	20	4	390	3.0	-74034.0	113823.0	-5643808.0
16	14	20	4	391	4.0	-51804.0	120031.0	-5644494.0
16	14	20	4	391	5.0	-38638.0	125888.0	-5645192.0
16	14	20	4	392	6.0	-31524.0	131613.0	-5644401.0
16	14	20	4	392	7.0	-23316.0	137574.0	-5643717.0
16	14	20	4	392	9.0	-10887.0	149401.0	-5645371.0
16	14	20	4	393	10.0	-9182.0	153661.0	-5644744.0
16	14	20	4	393	11.0	-20091.0	158691.0	-5644029.0
16	14	20	4	393	12.0	-25980.0	163291.0	-5644077.0
16	14	20	4	394	13.0	-11658.0	168364.0	-5645474.0
16	14	20	4	394	14.0	5370.0	172556.0	-5645004.0
16	14	20	4	394	15.0	23564.0	175359.0	-5644256.0
16	14	20	4	394	16.0	38141.0	178534.0	-5643882.0
16	14	20	4	395	17.0	44316.0	181444.0	-5645123.0
16	14	20	4	395	18.0	47984.0	184191.0	-5644887.0
16	14	20	4	395	19.0	49401.0	187556.0	-5644171.0
16	14	20	4	395	31.0	211394.0	193912.0	-5644545.0
16	14	20	4	396	32.0	198717.0	191250.0	-5643817.0
16	14	20	4	396	33.0	188588.0	188284.0	-5643941.0
16	14	20	4	396	34.0	168037.0	186249.0	-5645404.0
16	14	20	4	397	35.0	119189.0	183423.0	-5644977.0
16	14	20	4	397	36.0	26778.0	179786.0	-5644241.0
16	14	20	4	397	37.0	-143011.0	176255.0	-5643621.0
16	14	20	4	397	38.0	-357004.0	172463.0	-5644753.0
16	14	20	4	398	39.0	-526466.0	168343.0	-5645498.0
16	14	20	4	398	40.0	-545948.0	164516.0	-5644794.0
16	14	20	4	398	41.0	-407667.0	159740.0	-5644091.0
16	14	20	4	399	42.0	-234571.0	154854.0	-5643941.0
16	14	20	4	399	43.0	-35152.0	149992.0	-5645365.0
16	14	20	4	399	44.0	199147.0	144489.0	-5645160.0
16	14	20	4	399	45.0	394514.0	138735.0	-5644431.0
16	14	20	4	400	46.0	486059.0	132803.0	-5644831.0
16	14	20	4	400	47.0	455397.0	126562.0	-5646124.0
16	14	20	4	400	48.0	363724.0	121201.0	-5645602.0
16	14	20	4	402	49.0	239296.0	114731.0	-5644839.0
16	14	20	4	402	50.0	102883.0	108746.0	-5644234.0
16	14	20	4	403	51.0	-20135.0	102268.0	-5645188.0
16	14	20	4	403	52.0	-129141.0	95794.0	-5645776.0
16	14	20	4	404	54.0	-297346.0	82536.0	-5644363.0
16	14	20	4	404	55.0	-335791.0	74739.0	-5645152.0
16	14	20	4	405	56.0	-347512.0	68284.0	-5646117.0
16	14	20	4	405	57.0	-349906.0	61633.0	-5645440.0
16	14	20	4	405	58.0	-338764.0	55240.0	-5644759.0
16	14	20	4	406	59.0	-304268.0	48763.0	-5645380.0
16	14	20	4	462	60.0	-272914.0	41756.0	-5646425.0
16	14	20	4	462	61.0	-254987.0	35202.0	-5645767.0
16	14	20	4	462	62.0	-240855.0	28904.0	-5645083.0
16	14	20	4	463	63.0	-233601.0	22404.0	-5645181.0
16	14	20	4	463	64.0	-231554.0	14983.0	-5646626.0
16	14	20	4	463	65.0	-229642.0	8157.0	-5646175.0
16	14	20	4	463	66.0	-222073.0	1413.0	-5645477.0
16	14	20	4	464	67.0	-211501.0	-5039.0	-5644812.0
16	14	20	4	464	68.0	-178210.0	-11798.0	-5645795.0
16	14	20	4	464	69.0	-151419.0	-17736.0	-5646346.0
16	14	20	4	464	70.0	-129678.0	-23820.0	-5645666.0
16	14	20	4	465	71.0	-118667.0	-29752.0	-5644900.0
16	14	20	4	465	72.0	-112504.0	-35424.0	-5645014.0
16	14	20	4	465	73.0	-94472.0	-41188.0	-5646279.0
16	14	20	4	465	74.0	-74628.0	-46557.0	-5645894.0
16	14	20	4	466	76.0	-19892.0	-57701.0	-5645531.0
16	14	20	4	466	77.0	6657.0	-63312.0	-5646706.0
16	14	20	4	466	78.0	36632.0	-68390.0	-5646227.0
16	14	20	4	467	79.0	69434.0	-72537.0	-5645434.0
16	14	20	4	467	80.0	99838.0	-77120.0	-5645073.0
16	14	20	4	467	81.0	128771.0	-81647.0	-5646332.0
16	14	20	4	529	82.0	148871.0	-85921.0	-5646452.0
16	14	20	4	529	83.0	157127.0	-89487.0	-5645641.0
16	14	20	4	529	84.0	155833.0	-92669.0	-5645056.0
16	14	20	4	530	85.0	147942.0	-96267.0	-5645877.0
16	14	20	4	530	86.0	137731.0	-99530.0	-5646468.0
16	14	20	4	530	87.0	128701.0	-102664.0	-5645679.0
16	14	20	4	531	88.0	123655.0	-105124.0	-5645022.0
16	14	20	4	531	89.0	102382.0	-107371.0	-5645561.0
16	14	20	4	531	90.0	79191.0	-109687.0	-5646872.0
16	14	20	4	532	91.0	131136.0	-112184.0	-5646277.0
16	14	20	4	532	92.0	188881.0	-114594.0	-5645586.0
16	14	20	4	532	93.0	207440.0	-116781.0	-5645358.0
16	14	20	4	591	94.0	222866.0	-118979.0	-5646402.0
16	14	20	4	592	95.0	250103.0	-120245.0	-5645992.0
16	14	20	4	592	96.0	262081.0	-121798.0	-5645404.0
16	14	20	4	592	98.0	195478.0	-124354.0	-5647027.0
16	14	20	4	592	99.0	148782.0	-126284.0	-5646244.0
16	14	20	4	593	100.0	114469.0	-127726.0	-5645524.0
16	14	20	4	593	121.0	-57386.0	-119909.0	-5645396.0
16	14	20	4	593	122.0	-32829.0	-118239.0	-5645131.0
16	14	20	4	594	123.0	3753.0	-116163.0	-5646511.0
16	14	20	4	594	124.0	39528.0	-113859.0	-5646329.0
16	14	20	4	594	125.0	74076.0	-110778.0	-5645621.0
16	14	20	4	594	126.0	105833.0	-106630.0	-5645086.0
16	14	20	4	595	127.0	143184.0	-103941.0	-5646416.0
16	14	20	4	595	128.0	175802.0	-100962.0	-5646632.0
16	14	20	4	595	129.0	189271.0	-97714.0	-5645944.0
16	14	20	4	595	143.0	-32751.0	-46909.0	-5645646.0
16	14	20	4	596	144.0	-29065.0	-42549.0	-5646870.0
16	14	20	4	596	145.0	-19710.0	-39694.0	-5646979.0
16	14	20	4	596	146.0	1969.0	-36762.0	-5646184.0
16	14	20	4	597	147.0	27104.0	-33137.0	-5645592.0
16	14	20	4	597	148.0	55290.0	-29309.0	-5646611.0
16	14	20	4	597	149.0	82602.0	-25926.0	-5647313.0
16	14	20	4	659	150.0	110147.0	-22842.0	-5646546.0
16	14	20	4	660	151.0	135258.0	-19703.0	-5645817.0
16	14	20	4	660	152.0	155124.0	-15585.0	-5645906.0
16	14	20	4	660	153.0	164478.0	-12586.0	-5647106.0
16	14	20	4	661	154.0	163584.0	-9837.0	-5646556.0
16	14	20	4	661	155.0	166084.0	-7287.0	-5645887.0
16	14	20	4	661	156.0	165549.0	-5136.0	-5646319.0
16	14	20	4	662	157.0	157582.0	-3167.0	-5647454.0
16	14	20	4	662	158.0	130541.0	-341.0	-5646806.0
16	14	20	4	662	159.0	92299.0	2264.0	-5646132.0
16	14	20	4	662	160.0	47858.0	4492.0	-5645469.0
16	14	20	4	663	161.0	5539.0	6325.0	-5646545.0
16	14	20	4	663	162.0	-43863.0	8221.0	-5646889.0
16	14	20	4	663	163.0	-80703.0	10093.0	-5646149.0
16	14	20	4	664	164.0	-105625.0	11582.0	-5645324.0
16	14	20	4	664	166.0	-110064.0	14077.0	-5647056.0
16	14	20	4	664	167.0	-91907.0	14696.0	-5646524.0
16	14	20	4	664	168.0	-57257.0	15960.0	-5645715.0
16	14	20	4	665	169.0	-38286.0	17009.0	-5645466.0
16	14	20	4	665	170.0	-28989.0	17636.0	-5646642.0
16	14	20	4	665	171.0	-24989.0	18258.0	-5646477.0
16	14	20	4	666	172.0	-28629.0	18929.0	-5645688.0
16	14	20	4	666	173.0	-24571.0	19625.0	-5645609.0
16	14	20	4	666	174.0	-23292.0	20696.0	-5647087.0
16	14	20	4	666	175.0	-34028.0	20856.0	-5646884.0
16	14	20	4	667	176.0	-50231.0	20707.0	-5646075.0
16	14	20	4	667	177.0	-67664.0	21119.0	-5645578.0
16	14	20	4	667	178.0	-94914.0	20906.0	-5646879.0
16	14	20	4	667	179.0	-134786.0	20583.0	-5647315.0
16	14	20	4	668	180.0	-176263.0	19665.0	-5646489.0
16	14	20	4	668	181.0	-208697.0	18319.0	-5645790.0
16	14	20	4	668	182.0	-232146.0	18103.0	-5645489.0
16	14	20	4	669	183.0	-241107.0	17266.0	-5646311.0
16	14	20	4	669	184.0	-234810.0	16233.0	-5645906.0
16	14	20	4	669	185.0	-212760.0	14954.0	-5645253.0
16	14	20	4	670	186.0	-171886.0	13334.0	-5646064.0
16	14	20	4	670	188.0	-74141.0	11842.0	-5646446.0
16	14	20	4	670	189.0	-35624.0	10328.0	-5645695.0
16	14	20	4	738	190.0	10492.0	8212.0	-5645749.0
16	14	20	4	738	191.0	52269.0	6619.0	-5647056.0
16	14	20	4	739	192.0	91116.0	5284.0	-5646645.0
16	14	20	4	739	193.0	122169.0	3586.0	-5645854.0
16	14	20	4	739	194.0	136081.0	2271.0	-5645784.0
16	14	20	4	740	195.0	144149.0	1344.0	-5647051.0
16	14	20	4	740	196.0	138823.0	-154.0	-5646687.0
16	14	20	4	740	197.0	130902.0	-1601.0	-5645931.0
16	14	20	4	740	198.0	119974.0	-3132.0	-5645284.0
16	14	20	4	741	199.0	103702.0	-4592.0	-5646236.0
16	14	20	4	741	200.0	91678.0	-5937.0	-5647062.0
16	14	20	4	741	201.0	83968.0	-7409.0	-5646342.0
16	14	20	4	742	202.0	80982.0	-9474.0	-5645665.0
16	14	20	4	742	203.0	80867.0	-11730.0	-5646502.0
16	14	20	4	742	204.0	82519.0	-13643.0	-5647523.0
16	14	20	4	814	205.0	88728.0	-14959.0	-5646819.0
16	14	20	4	814	206.0	100784.0	-16983.0	-5646111.0
16	14	20	4	815	207.0	106578.0	-18740.0	-5646169.0
16	14	20	4	815	208.0	108449.0	-20501.0	-5647613.0
16	14	20	4	815	209.0	107186.0	-21881.0	-5647155.0
16	14	20	4	815	211.0	103479.0	-24772.0	-5645789.0
16	14	20	4	816	212.0	104764.0	-27069.0	-5646433.0
16	14	20	4	816	213.0	103976.0	-28964.0	-5646587.0
16	14	20	4	816	214.0	91372.0	-30048.0	-5645966.0
16	14	20	4	817	215.0	76051.0	-30867.0	-5646616.0
16	14	20	4	817	216.0	58118.0	-31366.0	-5647486.0
16	14	20	4	817	217.0	54364.0	-32444.0	-5646781.0
16	14	20	4	817	218.0	47593.0	-34012.0	-5646114.0
16	14	20	4	818	219.0	39216.0	-35115.0	-5645977.0
16	14	20	4	818	220.0	33904.0	-36141.0	-5646836.0
16	14	20	4	818	221.0	30473.0	-37174.0	-5646346.0
16	14	20	4	818	234.0	-38251.0	-46814.0	-5646156.0
16	14	20	4	819	235.0	-51556.0	-48291.0	-5646012.0
16	14	20	4	819	236.0	-65084.0	-47777.0	-5647391.0
16	14	20	4	819	237.0	-84439.0	-46777.0	-5647151.0
16	14	20	4	820	0.0	31648.0	-45008.0	-5646554.0
16	14	20	4	820	1.0	28155.0	-45286.0	-5647534.0
16	14	20	4	820	2.0	27392.0	-44346.0	-5646863.0
16	14	20	4	820	3.0	23216.0	-43296.0	-5646131.0
16	14	20	4	821	4.0	24551.0	-42842.0	-5645714.0
16	14	20	4	821	5.0	22993.0	-42110.0	-5646796.0
16	14	20	4	892	6.0	26355.0	-41356.0	-5646512.0
16	14	20	4	892	7.0	32417.0	-40334.0	-5645802.0
16	14	20	4	892	8.0	38018.0	-38727.0	-5645975.0
16	14	20	4	893	9.0	43577.0	-38122.0	-5647290.0
16	14	20	4	893	10.0	49322.0	-36954.0	-5646763.0
16	14	20	4	893	11.0	58589.0	-35974.0	-5646049.0
16	14	20	4	893	12.0	76154.0	-35691.0	-5645914.0
16	14	20	4	894	13.0	96163.0	-34780.0	-5647415.0
16	14	20	4	894	14.0	124094.0	-34552.0	-5647181.0
16	14	20	4	894	15.0	138481.0	-33944.0	-5646452.0
16	14	20	4	894	16.0	147914.0	-32701.0	-5645994.0
16	14	20	4	895	17.0	159385.0	-31809.0	-5647354.0
16	14	20	4	895	18.0	158909.0	-31120.0	-5647556.0
16	14	20	4	895	19.0	151776.0	-30022.0	-5646758.0
16	14	20	4	896	20.0	129333.0	-28727.0	-5646022.0
16	14	20	4	896	22.0	31751.0	-26237.0	-5647541.0
16	14	20	4	896	23.0	-44662.0	-25274.0	-5646879.0
16	14	20	4	896	24.0	-126789.0	-25442.0	-5646106.0
16	14	20	4	897	25.0	-215443.0	-24379.0	-5646139.0
16	14	20	4	897	26.0	-292533.0	-23115.0	-5647341.0
16	14	20	4	897	27.0	-354379.0	-22175.0	-5646871.0
16	14	20	4	898	28.0	-398904.0	-21089.0	-5646144.0
16	14	20	4	898	29.0	-414047.0	-20046.0	-5646361.0
16	14	20	4	898	30.0	-407371.0	-19072.0	-5647664.0
16	14	20	4	898	31.0	-370735.0	-17527.0	-5647149.0
16	14	20	4	899	32.0	-294497.0	-16225.0	-5646440.0
16	14	20	4	899	33.0	-188741.0	-14962.0	-5645804.0
16	14	20	4	899	34.0	-66056.0	-13812.0	-5646629.0
16	14	20	4	899	35.0	29759.0	-12396.0	-5647049.0
16	14	20	4	900	36.0	51384.0	-11845.0	-5646367.0
16	14	20	4	900	37.0	-72208.0	-10642.0	-5646016.0
16	14	20	4	900	38.0	-331073.0	-9991.0	-5647277.0
16	14	20	4	901	39.0	-648003.0	-9039.0	-5647004.0
16	14	20	4	901	40.0	-973861.0	-8057.0	-5646271.0
16	14	20	4	901	41.0	-1172579.0	-7211.0	-5645615.0
16	14	20	4	902	42.0	-1227101.0	-6027.0	-5646322.0
16	14	20	4	902	43.0	-1176439.0	-5327.0	-5646396.0
16	14	20	4	902	45.0	-824392.0	-3113.0	-5645855.0
16	14	20	4	902	46.0	-405253.0	-3200.0	-5647061.0
16	14	20	4	903	47.0	155386.0	-1941.0	-5646531.0
16	14	20	4	903	48.0	757351.0	-751.0	-5645882.0
16	14	20	4	903	49.0	1258716.0	401.0	-5645672.0
16	14	20	4	904	50.0	1517053.0	1183.0	-5646652.0
16	14	20	4	969	51.0	1489581.0	2479.0	-5646179.0
16	14	20	4	969	52.0	1252425.0	3836.0	-5645457.0
16	14	20	4	969	53.0	886651.0	5991.0	-5645360.0
16	14	20	4	970	54.0	457832.0	7424.0	-5646153.0
16	14	20	4	970	55.0	17084.0	8424.0	-5645621.0
16	14	20	4	970	56.0	-356382.0	9408.0	-5645043.0
16	14	20	4	970	57.0	-617423.0	9284.0	-5646126.0
16	14	20	4	971	58.0	-669288.0	9621.0	-5646228.0
16	14	20	4	971	59.0	-510259.0	11200.0	-5645556.0
16	14	20	4	972	60.0	-248302.0	11852.0	-5644909.0
16	14	20	4	972	61.0	23825.0	13089.0	-5645632.0
16	14	20	4	972	62.0	284653.0	14281.0	-5646057.0
16	14	20	4	972	63.0	561904.0	15192.0	-5645449.0
16	14	20	4	972	64.0	822184.0	15809.0	-5644979.0
16	14	20	4	973	65.0	1017992.0	16589.0	-5646216.0
16	14	20	4	973	67.0	1081484.0	17679.0	-5645446.0
16	14	20	4	973	68.0	946854.0	17521.0	-5644795.0
16	14	20	4	974	69.0	747129.0	17660.0	-5645629.0
16	14	20	4	974	70.0	506733.0	18678.0	-5645618.0
16	14	20	4	974	71.0	274981.0	19358.0	-5644916.0
16	14	20	4	974	72.0	81178.0	20114.0	-5644546.0
16	14	20	4	975	73.0	-69631.0	20820.0	-5645533.0
16	14	20	4	975	74.0	-190916.0	22443.0	-5645167.0
16	14	20	4	975	75.0	-292362.0	23567.0	-5644536.0
16	14	20	4	976	76.0	-370082.0	23766.0	-5645351.0
16	14	20	4	976	77.0	-406891.0	23976.0	-5646061.0
16	14	20	4	976	78.0	-396085.0	24539.0	-5645339.0
16	14	20	4	976	79.0	-346802.0	24741.0	-5644619.0
16	14	20	4	977	80.0	-279514.0	24786.0	-5645294.0
16	14	20	4	977	81.0	-205612.0	25288.0	-5646407.0
16	14	20	4	977	82.0	-129954.0	25489.0	-5645792.0
16	14	20	4	978	83.0	-64311.0	26082.0	-5645009.0
16	14	20	4	978	84.0	-7939.0	26954.0	-5644397.0
16	14	20	5	51	90.0	108260.0	28227.0	-5645966.0
16	14	20	5	51	91.0	84945.0	27325.0	-5645240.0
16	14	20	5	52	92.0	21803.0	27213.0	-5644627.0
16	14	20	5	52	93.0	-107766.0	27426.0	-5645552.0
16	14	20	5	52	94.0	-110888.0	27516.0	-5646427.0
16	14	20	5	53	95.0	41176.0	27515.0	-5645721.0
16	14	20	5	53	96.0	-23097.0	28333.0	-5645013.0
16	14	20	5	53	97.0	-95602.0	28865.0	-5645362.0
16	14	20	5	53	98.0	-88990.0	28793.0	-5646647.0
16	14	20	5	54	99.0	-34646.0	29109.0	-5646032.0
16	14	20	5	54	100.0	19620.0	28793.0	-5645320.0
16	14	20	5	54	101.0	33295.0	28696.0	-5644690.0
16	14	20	5	54	102.0	30299.0	28341.0	-5645538.0
16	14	20	5	55	103.0	26202.0	27890.0	-5645831.0
16	14	20	5	55	104.0	41511.0	27450.0	-5645152.0
16	14	20	5	55	105.0	75990.0	27986.0	-5644657.0
16	14	20	5	56	112.0	139664.0	27606.0	-5645049.0
16	14	20	5	56	113.0	119850.0	26372.0	-5644782.0
16	14	20	5	56	114.0	110792.0	25631.0	-5646262.0
16	14	20	5	56	115.0	98899.0	25504.0	-5646036.0
16	14	20	5	57	116.0	88021.0	25221.0	-5645335.0
16	14	20	5	57	117.0	79821.0	24942.0	-5644720.0
16	14	20	5	57	118.0	72777.0	24753.0	-5645911.0
16	14	20	5	140	119.0	70303.0	24799.0	-5646196.0
16	14	20	5	141	120.0	63107.0	25456.0	-5645512.0
16	14	20	5	141	121.0	54959.0	26745.0	-5644752.0
16	14	20	5	141	122.0	44528.0	27416.0	-5645183.0
16	14	20	5	142	123.0	27703.0	27346.0	-5646424.0
16	14	20	5	142	124.0	9444.0	28117.0	-5645859.0
16	14	20	5	142	125.0	-10101.0	28994.0	-5645089.0
16	14	20	5	142	126.0	-25308.0	30650.0	-5645576.0
16	14	20	5	143	127.0	-43587.0	32041.0	-5646680.0
16	14	20	5	143	128.0	-57363.0	33203.0	-5646062.0
16	14	20	5	143	129.0	-50166.0	36092.0	-5645294.0
16	14	20	5	144	130.0	-32581.0	39176.0	-5645367.0
16	14	20	5	144	131.0	-5524.0	41694.0	-5646639.0
16	14	20	5	144	132.0	20174.0	45066.0	-5646222.0
16	14	20	5	145	133.0	35943.0	48773.0	-5645444.0
16	14	20	5	145	135.0	53796.0	58328.0	-5645458.0
16	14	20	5	145	136.0	55262.0	62428.0	-5646282.0
16	14	20	5	145	137.0	56303.0	68033.0	-5645572.0
16	14	20	5	146	138.0	54296.0	73581.0	-5645147.0
16	14	20	5	146	139.0	49798.0	79436.0	-5646392.0
16	14	20	5	146	140.0	44386.0	85756.0	-5646405.0
16	14	20	5	147	141.0	28404.0	92436.0	-5645686.0
16	14	20	5	147	142.0	-9824.0	99556.0	-5644980.0
16	14	20	5	147	143.0	-53953.0	106984.0	-5645779.0
16	14	20	5	147	144.0	-107506.0	113314.0	-5646704.0
16	14	20	5	148	145.0	-153163.0	119839.0	-5646048.0
16	14	20	5	148	146.0	-177774.0	125473.0	-5645236.0
16	14	20	5	148	147.0	-182147.0	131845.0	-5644811.0
16	14	20	5	149	148.0	-173665.0	138458.0	-5646049.0
16	14	20	5	149	149.0	-157691.0	144406.0	-5645980.0
16	14	20	5	149	150.0	-126031.0	150194.0	-5645216.0
16	14	20	5	149	151.0	-85549.0	156189.0	-5644762.0
16	14	20	5	150	152.0	-50637.0	162016.0	-5646213.0
16	14	20	5	150	153.0	-23666.0	167513.0	-5646544.0
16	14	20	5	150	154.0	-7311.0	171924.0	-5645837.0
16	14	20	5	151	155.0	9498.0	176366.0	-5645256.0
16	14	20	5	151	157.0	33659.0	184653.0	-5646700.0
16	14	20	5	152	158.0	54525.0	188420.0	-5645934.0
16	14	20	5	152	159.0	72088.0	191349.0	-5645281.0
16	14	20	5	152	160.0	81291.0	194763.0	-5645909.0
16	14	20	5	153	161.0	79353.0	198092.0	-5646972.0
16	14	20	5	153	162.0	75740.0	201008.0	-5646275.0
16	14	20	5	227	163.0	86120.0	203685.0	-5645539.0
16	14	20	5	227	164.0	98584.0	205871.0	-5645124.0
16	14	20	5	227	165.0	119124.0	208174.0	-5646422.0
16	14	20	5	228	166.0	126679.0	209674.0	-5646291.0
16	14	20	5	228	167.0	128328.0	209505.0	-5645556.0
16	14	20	5	228	168.0	129061.0	210054.0	-5644884.0
16	14	20	5	228	169.0	131091.0	210226.0	-5645716.0
16	14	20	5	229	170.0	142624.0	209971.0	-5646009.0
16	14	20	5	229	171.0	166237.0	209119.0	-5645378.0
16	14	20	5	229	172.0	206726.0	207489.0	-5645066.0
16	14	20	5	229	173.0	252948.0	205919.0	-5646390.0
16	14	20	5	230	174.0	297296.0	204087.0	-5646164.0
16	14	20	5	230	175.0	335215.0	202121.0	-5645490.0
16	14	20	5	230	176.0	369721.0	199946.0	-5645321.0
16	14	20	5	230	177.0	397636.0	196320.0	-5646876.0
16	14	20	5	231	179.0	408731.0	188484.0	-5645878.0
16	14	20	5	231	180.0	387231.0	184613.0	-5645105.0
16	14	20	5	231	181.0	344962.0	179384.0	-5645909.0
16	14	20	5	232	182.0	270774.0	174553.0	-5646744.0
16	14	20	5	232	183.0	131693.0	169604.0	-5646135.0
16	14	20	5	232	184.0	-87145.0	164314.0	-5645341.0
16	14	20	5	233	185.0	-371562.0	158590.0	-5645527.0
16	14	20	5	233	186.0	-556508.0	153282.0	-5646951.0
16	14	20	5	233	187.0	-525671.0	147280.0	-5646590.0
16	14	20	5	233	188.0	-373327.0	141658.0	-5645857.0
16	14	20	5	234	189.0	-208778.0	135469.0	-5646433.0
16	14	20	5	234	190.0	-13577.0	129376.0	-5647562.0
16	14	20	5	234	191.0	196344.0	123197.0	-5647024.0
16	14	20	5	234	192.0	336169.0	116323.0	-5646279.0
16	14	20	5	234	193.0	360243.0	109269.0	-5645915.0
16	14	20	5	235	194.0	282220.0	102385.0	-5647272.0
16	14	20	5	235	195.0	158142.0	94934.0	-5647386.0
16	14	20	5	235	196.0	8766.0	87761.0	-5646571.0
16	14	20	5	235	197.0	-144714.0	81529.0	-5645897.0
16	14	20	5	236	198.0	-289799.0	74577.0	-5646429.0
16	14	20	5	236	199.0	-420917.0	67202.0	-5647392.0
16	14	20	5	236	200.0	-531087.0	59737.0	-5646734.0
16	14	20	5	236	202.0	-711379.0	45091.0	-5646076.0
16	14	20	5	237	203.0	-781926.0	37655.0	-5646839.0
16	14	20	5	237	204.0	-823436.0	30058.0	-5646291.0
16	14	20	5	237	205.0	-835511.0	23601.0	-5645647.0
16	14	20	5	237	206.0	-797723.0	16804.0	-5646227.0
16	14	20	5	238	207.0	-706351.0	9793.0	-5646336.0
16	14	20	5	238	208.0	-577237.0	2653.0	-5645742.0
16	14	20	5	238	209.0	-434516.0	-3711.0	-5646536.0
16	14	20	5	238	210.0	-302007.0	-9259.0	-5647326.0
16	14	20	5	239	211.0	-186244.0	-15261.0	-5646572.0
16	14	20	5	239	212.0	-96512.0	-21743.0	-5645901.0
16	14	20	5	316	213.0	-20687.0	-28131.0	-5645367.0
16	14	20	5	316	214.0	24053.0	-34144.0	-5646559.0
16	14	20	5	317	215.0	45882.0	-39691.0	-5646657.0
16	14	20	5	317	216.0	43363.0	-45428.0	-5645981.0
16	14	20	5	317	217.0	17526.0	-51202.0	-5645436.0
16	14	20	5	317	218.0	-25198.0	-56489.0	-5646786.0
16	14	20	5	318	219.0	-70274.0	-61642.0	-5646952.0
16	14	20	5	318	220.0	-101284.0	-66356.0	-5646281.0
16	14	20	5	318	221.0	-109462.0	-70720.0	-5645614.0
16	14	20	5	319	222.0	-94027.0	-75632.0	-5646541.0
16	14	20	5	319	224.0	1126.0	-83469.0	-5646342.0
16	14	20	5	319	225.0	73323.0	-87266.0	-5645587.0
16	14	20	5	319	226.0	158091.0	-92037.0	-5646336.0
16	14	20	5	320	227.0	250402.0	-95018.0	-5647059.0
16	14	20	5	320	228.0	344706.0	-98043.0	-5646439.0
16	14	20	5	320	247.0	762159.0	-128281.0	-5646599.0
16	14	20	5	320	248.0	802388.0	-129218.0	-5647695.0
16	14	20	5	321	249.0	813416.0	-130042.0	-5647002.0
16	14	20	5	321	250.0	834824.0	-130186.0	-5646331.0
16	14	20	5	321	251.0	860589.0	-130244.0	-5646115.0
16	14	20	5	322	252.0	893201.0	-129469.0	-5647079.0
16	14	20	5	409	253.0	847918.0	-129506.0	-5646638.0
16	14	20	5	409	254.0	807525.0	-128816.0	-5645940.0
16	14	20	5	410	255.0	773229.0	-127136.0	-5646270.0
16	14	20	5	410	0.0	749847.0	-125984.0	-5646937.0
16	14	20	5	410	1.0	702722.0	-125044.0	-5646316.0
16	14	20	5	410	2.0	573012.0	-124274.0	-5645990.0
16	14	20	5	411	3.0	289699.0	-123133.0	-5647267.0
16	14	20	5	411	4.0	424574.0	-122084.0	-5647055.0
16	14	20	5	411	5.0	383779.0	-120768.0	-5646342.0
16	14	20	5	412	6.0	253412.0	-119063.0	-5645580.0
16	14	20	5	412	7.0	297078.0	-117241.0	-5645842.0
16	14	20	5	412	8.0	313133.0	-115241.0	-5647224.0
16	14	20	5	413	9.0	72079.0	-113229.0	-5646769.0
16	14	20	5	413	10.0	268751.0	-111511.0	-5646002.0
16	14	20	5	413	11.0	210964.0	-109498.0	-5646619.0
16	14	20	5	414	13.0	53451.0	-104966.0	-5646968.0
16	14	20	5	414	14.0	85493.0	-102543.0	-5646129.0
16	14	20	5	414	15.0	213443.0	-99772.0	-5646122.0
16	14	20	5	414	16.0	343474.0	-95816.0	-5647469.0
16	14	20	5	415	17.0	565226.0	-92810.0	-5647178.0
16	14	20	5	415	18.0	695182.0	-89569.0	-5646364.0
16	14	20	5	415	19.0	610438.0	-86289.0	-5645754.0
16	14	20	5	416	20.0	505312.0	-83373.0	-5646632.0
16	14	20	5	416	21.0	376076.0	-79849.0	-5647237.0
16	14	20	5	416	22.0	181558.0	-75922.0	-5646451.0
16	14	20	5	417	23.0	71964.0	-73097.0	-5645877.0
16	14	20	5	417	24.0	21079.0	-69036.0	-5646788.0
16	14	20	5	417	25.0	-53741.0	-65105.0	-5647042.0
16	14	20	5	418	26.0	-63191.0	-61412.0	-5646271.0
16	14	20	5	418	27.0	-54226.0	-58107.0	-5645637.0
16	14	20	5	418	28.0	-72328.0	-54282.0	-5646322.0
16	14	20	5	418	29.0	-58520.0	-51346.0	-5647224.0
16	14	20	5	419	30.0	-188935.0	-48565.0	-5646465.0
16	14	20	5	419	31.0	-269044.0	-45084.0	-5645814.0
16	14	20	5	419	32.0	-302376.0	-41836.0	-5646554.0
16	14	20	5	420	33.0	-290432.0	-39176.0	-5647856.0
16	14	20	5	420	34.0	-304074.0	-36016.0	-5647159.0
16	14	20	5	420	36.0	-338447.0	-29170.0	-5645696.0
16	14	20	5	420	37.0	-394591.0	-27450.0	-5646537.0
16	14	20	5	505	38.0	-418291.0	-25087.0	-5647174.0
16	14	20	5	506	39.0	-458692.0	-22400.0	-5646533.0
16	14	20	5	506	40.0	-516949.0	-19854.0	-5645769.0
16	14	20	5	507	41.0	-569791.0	-17275.0	-5646554.0
16	14	20	5	507	42.0	-663256.0	-14472.0	-5647444.0
16	14	20	5	507	43.0	-781487.0	-11219.0	-5646829.0
16	14	20	5	508	44.0	-875837.0	-8776.0	-5646050.0
16	14	20	5	508	45.0	-957785.0	-6846.0	-5646822.0
16	14	20	5	508	46.0	-1022380.0	-5015.0	-5647627.0
16	14	20	5	508	47.0	-1045479.0	-3643.0	-5646999.0
16	14	20	5	509	48.0	-1059749.0	-2078.0	-5646180.0
16	14	20	5	509	49.0	-1080109.0	-464.0	-5646698.0
16	14	20	5	509	50.0	-1156190.0	1111.0	-5647746.0
16	14	20	5	510	51.0	-1262234.0	3100.0	-5647215.0
16	14	20	5	510	52.0	-1340697.0	4398.0	-5646629.0
16	14	20	5	510	53.0	-1772202.0	5411.0	-5647476.0
16	14	20	5	510	59.0	373731.0	9411.0	-5647163.0
16	14	20	5	511	60.0	1471376.0	8849.0	-5646992.0
16	14	20	5	602	61.0	1812959.0	9068.0	-5646769.0
16	14	20	5	602	62.0	1723231.0	9494.0	-5648097.0
16	14	20	5	603	63.0	1365633.0	10653.0	-5647894.0
16	14	20	5	603	64.0	1177458.0	10915.0	-5647182.0
16	14	20	5	603	65.0	824735.0	10851.0	-5646512.0
16	14	20	5	604	66.0	572854.0	10649.0	-5647172.0
16	14	20	5	604	81.0	333748.0	-6264.0	-5649879.0
16	14	20	5	604	82.0	-733.0	-8783.0	-5649254.0
16	14	20	5	605	83.0	-961305.0	-10782.0	-5649019.0
16	14	20	5	605	84.0	-858420.0	-12437.0	-5648412.0
16	14	20	5	605	85.0	-322216.0	-12872.0	-5647668.0
16	14	20	5	606	86.0	-618209.0	-13665.0	-5647540.0
16	14	20	5	606	87.0	-1536215.0	-15857.0	-5648517.0
16	14	20	5	705	88.0	-2165549.0	-16816.0	-5647730.0
16	14	20	5	705	104.0	920558.0	-36965.0	-5648532.0
16	14	20	5	706	126.0	-523755.0	-46021.0	-5648777.0
16	14	20	5	706	148.0	-290343.0	-39227.0	-5647628.0
16	14	20	5	706	149.0	-404372.0	-39161.0	-5647432.0
16	14	20	5	706	150.0	-533831.0	-39002.0	-5648956.0
16	14	20	5	707	151.0	-648797.0	-38392.0	-5648684.0
16	14	20	5	707	152.0	-737500.0	-37498.0	-5647953.0
16	14	20	5	707	153.0	-800602.0	-37049.0	-5647417.0
16	14	20	5	707	154.0	-843858.0	-36330.0	-5648586.0
16	14	20	5	707	155.0	-879899.0	-35551.0	-5648941.0
16	14	20	5	708	156.0	-892849.0	-34047.0	-5648194.0
16	14	20	5	708	157.0	-857406.0	-32216.0	-5647552.0
16	14	20	5	708	158.0	-793194.0	-31461.0	-5648505.0
16	14	20	5	708	159.0	-806731.0	-30887.0	-5649097.0
16	14	20	5	709	160.0	-813214.0	-30046.0	-5648343.0
16	14	20	5	709	161.0	-726597.0	-28734.0	-5647732.0
16	14	20	5	709	162.0	-610389.0	-27924.0	-5648744.0
16	14	20	5	710	163.0	-588242.0	-27212.0	-5649364.0
16	14	20	5	710	164.0	-607426.0	-26097.0	-5648650.0
16	14	20	5	710	165.0	-623633.0	-24991.0	-5647893.0
16	14	20	5	710	166.0	-662559.0	-23755.0	-5647446.0
16	14	20	5	711	167.0	-674749.0	-23750.0	-5648793.0
16	14	20	5	711	168.0	-663085.0	-23124.0	-5648838.0
16	14	20	5	711	169.0	-650036.0	-22283.0	-5648063.0
16	14	20	5	712	171.0	-623198.0	-20753.0	-5648992.0
16	14	20	5	712	172.0	-570417.0	-20611.0	-5648879.0
16	14	20	5	712	173.0	-484899.0	-20095.0	-5648154.0
16	14	20	5	713	174.0	-353692.0	-19337.0	-5647480.0
16	14	20	5	713	175.0	-200118.0	-18491.0	-5648077.0
16	14	20	5	713	176.0	-50922.0	-16643.0	-5648365.0
16	14	20	5	713	177.0	83844.0	-15194.0	-5647724.0
16	14	20	5	714	178.0	185379.0	-13972.0	-5647097.0
16	14	20	5	714	179.0	265238.0	-12851.0	-5647855.0
16	14	20	5	714	180.0	338341.0	-11652.0	-5647804.0
16	14	20	5	715	181.0	427063.0	-10765.0	-5647171.0
16	14	20	5	715	182.0	533729.0	-8899.0	-5647976.0
16	14	20	5	715	183.0	644267.0	-7676.0	-5649033.0
16	14	20	5	716	193.0	1293786.0	1896.0	-5648181.0
16	14	20	5	716	194.0	904009.0	2332.0	-5647421.0
16	14	20	5	716	195.0	443916.0	2426.0	-5648002.0
16	14	20	5	717	196.0	29072.0	2946.0	-5648870.0
16	14	20	5	717	197.0	-208639.0	3739.0	-5648240.0
16	14	20	5	717	198.0	-268989.0	4525.0	-5647442.0
16	14	20	5	785	199.0	-214431.0	5177.0	-5647583.0
16	14	20	5	785	200.0	-78287.0	5872.0	-5648637.0
16	14	20	5	785	201.0	198112.0	8367.0	-5648152.0
16	14	20	5	786	202.0	628183.0	10016.0	-5647411.0
16	14	20	5	786	203.0	1168375.0	11193.0	-5647813.0
16	14	20	5	786	204.0	1722150.0	12501.0	-5649306.0
16	14	20	5	786	205.0	2116457.0	13788.0	-5648891.0
16	14	20	5	787	206.0	2201201.0	15044.0	-5648152.0
16	14	20	5	787	207.0	1955866.0	16108.0	-5647599.0
16	14	20	5	787	208.0	1432811.0	16669.0	-5648642.0
16	14	20	5	788	209.0	766330.0	17395.0	-5648887.0
16	14	20	5	788	210.0	105378.0	17997.0	-5648059.0
16	14	20	5	788	211.0	-473895.0	18019.0	-5647419.0
16	14	20	5	788	212.0	-902896.0	18965.0	-5648640.0
16	14	20	5	788	213.0	-1150523.0	19681.0	-5649276.0
16	14	20	5	789	215.0	-988666.0	20399.0	-5647833.0
16	14	20	5	789	216.0	-674144.0	21194.0	-5647564.0
16	14	20	5	789	217.0	-383274.0	20801.0	-5648999.0
16	14	20	5	789	218.0	-175361.0	20632.0	-5648852.0
16	14	20	5	790	219.0	-9727.0	21170.0	-5648145.0
16	14	20	5	790	220.0	152409.0	21403.0	-5647882.0
16	14	20	5	790	221.0	305419.0	21778.0	-5649287.0
16	14	20	5	790	222.0	402370.0	22281.0	-5649122.0
16	14	20	5	791	223.0	405745.0	23105.0	-5648367.0
16	14	20	5	791	224.0	318889.0	25260.0	-5647767.0
16	14	20	5	791	225.0	164117.0	25986.0	-5648950.0
16	14	20	5	792	226.0	-33441.0	26413.0	-5649488.0
16	14	20	5	792	227.0	-232648.0	26899.0	-5648724.0
16	14	20	5	792	228.0	-405658.0	27671.0	-5647948.0
16	14	20	5	793	229.0	-513971.0	27688.0	-5648230.0
16	14	20	5	793	230.0	-544740.0	27474.0	-5649358.0
16	14	20	5	793	231.0	-590093.0	27497.0	-5648772.0
16	14	20	5	793	232.0	-664491.0	28223.0	-5648041.0
16	14	20	5	794	233.0	-704169.0	28971.0	-5648335.0
16	14	20	5	794	234.0	-682584.0	28936.0	-5649466.0
16	14	20	5	794	235.0	-604629.0	29081.0	-5648926.0
16	14	20	5	795	236.0	-495895.0	28719.0	-5648239.0
16	14	20	5	795	238.0	-245679.0	29124.0	-5649562.0
16	14	20	5	795	239.0	-108192.0	28261.0	-5649276.0
16	14	20	5	868	240.0	17482.0	27729.0	-5648562.0
16	14	20	5	868	241.0	93018.0	27322.0	-5648378.0
16	14	20	5	869	242.0	114786.0	26609.0	-5649797.0
16	14	20	5	869	243.0	95745.0	26068.0	-5649472.0
16	14	20	5	869	244.0	59598.0	26061.0	-5648752.0
16	14	20	5	870	245.0	19061.0	26025.0	-5648017.0
16	14	20	5	870	246.0	-18896.0	26514.0	-5648359.0
16	14	20	5	870	247.0	-61517.0	27019.0	-5649778.0
16	14	20	5	871	248.0	-118139.0	27696.0	-5649315.0
16	14	20	5	871	249.0	-186324.0	27671.0	-5648497.0
16	14	20	5	872	250.0	-261958.0	27704.0	-5648348.0
16	14	20	5	872	251.0	-324859.0	27498.0	-5649711.0
16	14	20	5	872	252.0	-358452.0	26834.0	-5649506.0
16	14	20	5	872	253.0	-357547.0	26368.0	-5648711.0
16	14	20	5	873	254.0	-313366.0	26661.0	-5648434.0
16	14	20	5	873	255.0	-245091.0	26455.0	-5649852.0
16	14	20	5	873	0.0	-156704.0	26006.0	-5649896.0
16	14	20	5	873	1.0	-73685.0	25513.0	-5649091.0
16	14	20	5	874	2.0	11868.0	25251.0	-5648436.0
16	14	20	5	874	4.0	173175.0	24710.0	-5650169.0
16	14	20	5	874	5.0	244574.0	23876.0	-5649497.0
16	14	20	5	874	6.0	306013.0	22868.0	-5648829.0
16	14	20	5	874	7.0	367783.0	22401.0	-5649254.0
16	14	20	5	875	8.0	438419.0	21816.0	-5650395.0
16	14	20	5	875	9.0	489360.0	20873.0	-5649786.0
16	14	20	5	875	10.0	502798.0	20437.0	-5649130.0
16	14	20	5	875	11.0	491623.0	19939.0	-5648759.0
16	14	20	5	876	12.0	468878.0	19746.0	-5650197.0
16	14	20	5	876	13.0	431509.0	20879.0	-5650084.0
16	14	20	5	876	14.0	377230.0	21258.0	-5649369.0
16	14	20	5	878	15.0	313413.0	21219.0	-5648729.0
16	14	20	5	879	16.0	243211.0	20411.0	-5649873.0
16	14	20	5	879	17.0	165915.0	20205.0	-5650297.0
16	14	20	5	880	18.0	90220.0	20273.0	-5649634.0
16	14	20	5	880	19.0	20949.0	20078.0	-5648809.0
16	14	20	5	881	20.0	-36886.0	19906.0	-5648824.0
16	14	20	5	881	21.0	-71561.0	19588.0	-5650240.0
16	14	20	5	882	22.0	-84299.0	19852.0	-5649956.0
16	14	20	5	882	23.0	-87972.0	20468.0	-5649145.0
16	14	20	5	883	24.0	-102666.0	21229.0	-5649108.0
16	14	20	5	883	25.0	-106014.0	21878.0	-5650349.0
16	14	20	5	884	27.0	-94130.0	25549.0	-5649249.0
16	14	20	5	884	28.0	-97722.0	27114.0	-5648799.0
16	14	20	5	885	29.0	-104525.0	29553.0	-5650011.0
16	14	20	5	885	30.0	-111104.0	32690.0	-5650409.0
16	14	20	5	886	31.0	-126487.0	36235.0	-5649598.0
16	14	20	5	886	32.0	-140008.0	40111.0	-5648937.0
16	14	20	5	953	33.0	-157378.0	44412.0	-5649475.0
16	14	20	5	953	34.0	-169454.0	49128.0	-5650441.0
16	14	20	5	954	35.0	-172261.0	55431.0	-5649687.0
16	14	20	5	954	36.0	-168186.0	61403.0	-5648961.0
16	14	20	5	954	37.0	-161980.0	67645.0	-5648576.0
16	14	20	5	954	38.0	-164950.0	73936.0	-5649472.0
16	14	20	5	954	39.0	-173719.0	79966.0	-5649110.0
16	14	20	5	955	40.0	-180918.0	87010.0	-5648382.0
16	14	20	5	955	41.0	-187476.0	94033.0	-5648530.0
16	14	20	5	955	42.0	-203732.0	100651.0	-5649251.0
16	14	20	5	955	43.0	-218744.0	108088.0	-5648657.0
16	14	20	5	956	44.0	-230587.0	115154.0	-5648499.0
16	14	20	5	956	45.0	-238970.0	121744.0	-5650076.0
16	14	20	5	956	46.0	-237281.0	128793.0	-5649786.0
16	14	20	5	956	47.0	-216606.0	135586.0	-5649080.0
16	14	20	5	957	49.0	-143864.0	148423.0	-5649881.0
16	14	20	5	957	57.0	7560.0	188419.0	-5648742.0
16	14	20	5	957	58.0	2451.0	191618.0	-5650081.0
16	14	20	5	957	59.0	-446.0	194018.0	-5649790.0
16	14	20	5	958	60.0	-3587.0	196554.0	-5648985.0
16	14	20	5	958	61.0	-1199.0	198714.0	-5648536.0
16	14	20	5	958	62.0	15501.0	200531.0	-5649747.0
16	14	20	5	958	63.0	34364.0	202642.0	-5649992.0
16	14	20	5	959	64.0	58114.0	204774.0	-5649180.0
16	14	20	6	29	65.0	71113.0	206105.0	-5648886.0
16	14	20	6	30	66.0	81057.0	206546.0	-5650239.0
16	14	20	6	30	67.0	85257.0	207772.0	-5650258.0
16	14	20	6	30	68.0	81663.0	208595.0	-5649459.0
16	14	20	6	30	69.0	87539.0	208302.0	-5648798.0
16	14	20	6	31	70.0	110361.0	207925.0	-5648287.0
16	14	20	6	31	71.0	146303.0	206891.0	-5649123.0
16	14	20	6	31	72.0	184350.0	204743.0	-5648874.0
16	14	20	6	32	73.0	223629.0	202654.0	-5648343.0
16	14	20	6	32	74.0	259338.0	200774.0	-5649622.0
16	14	20	6	32	75.0	289905.0	198073.0	-5650272.0
16	14	20	6	32	76.0	311849.0	194877.0	-5649497.0
16	14	20	6	33	77.0	318138.0	191442.0	-5648798.0
16	14	20	6	33	78.0	317491.0	187556.0	-5648911.0
16	14	20	6	33	79.0	311916.0	183247.0	-5649791.0
16	14	20	6	33	80.0	293618.0	178403.0	-5649231.0
16	14	20	6	33	81.0	246929.0	172586.0	-5648561.0
16	14	20	6	34	82.0	170001.0	167510.0	-5649324.0
16	14	20	6	34	83.0	28879.0	162058.0	-5650182.0
16	14	20	6	34	84.0	-210708.0	156501.0	-5649456.0
16	14	20	6	34	85.0	-564159.0	151234.0	-5648688.0
16	14	20	6	35	86.0	-905744.0	145707.0	-5649086.0
16	14	20	6	35	87.0	-956786.0	140578.0	-5649672.0
16	14	20	6	35	88.0	-742842.0	133970.0	-5649126.0
16	14	20	6	35	89.0	-413413.0	127836.0	-5648465.0
16	14	20	6	35	90.0	-83864.0	122037.0	-5649468.0
16	14	20	6	36	91.0	212630.0	115886.0	-5650289.0
16	14	20	6	36	92.0	403331.0	109295.0	-5649662.0
16	14	20	6	36	93.0	475633.0	102276.0	-5649001.0
16	14	20	6	36	94.0	428582.0	94639.0	-5650034.0
16	14	20	6	37	95.0	306868.0	87103.0	-5650370.0
16	14	20	6	37	96.0	135279.0	78714.0	-5649675.0
16	14	20	6	37	97.0	-42904.0	71848.0	-5648989.0
16	14	20	6	37	98.0	-187469.0	64697.0	-5650052.0
16	14	20	6	38	99.0	-306637.0	57661.0	-5650407.0
16	14	20	6	38	100.0	-446467.0	50370.0	-5649732.0
16	14	20	6	38	101.0	-598423.0	43294.0	-5648971.0
16	14	20	6	38	102.0	-737436.0	36584.0	-5649582.0
16	14	20	6	39	103.0	-816446.0	28493.0	-5650452.0
16	14	20	6	103	104.0	-823604.0	20593.0	-5649847.0
16	14	20	6	103	105.0	-742358.0	14228.0	-5649088.0
16	14	20	6	103	106.0	-596505.0	7553.0	-5650062.0
16	14	20	6	104	107.0	-415732.0	1172.0	-5650854.0
16	14	20	6	104	108.0	-230656.0	-5344.0	-5650252.0
16	14	20	6	104	109.0	-63245.0	-11742.0	-5649563.0
16	14	20	6	104	110.0	66567.0	-19016.0	-5650500.0
16	14	20	6	105	111.0	142846.0	-26412.0	-5651192.0
16	14	20	6	105	112.0	188598.0	-32934.0	-5650531.0
16	14	20	6	105	113.0	200185.0	-38472.0	-5649760.0
16	14	20	6	105	114.0	182733.0	-44050.0	-5650507.0
16	14	20	6	105	115.0	130604.0	-49999.0	-5651233.0
16	14	20	6	106	116.0	50937.0	-55348.0	-5650605.0
16	14	20	6	106	117.0	-35774.0	-60489.0	-5649811.0
16	14	20	6	106	118.0	-120988.0	-66713.0	-5650049.0
16	14	20	6	106	119.0	-186291.0	-71921.0	-5651576.0
16	14	20	6	106	120.0	-230124.0	-76332.0	-5651219.0
16	14	20	6	107	121.0	-248241.0	-79914.0	-5650407.0
16	14	20	6	107	122.0	-244520.0	-83627.0	-5650042.0
16	14	20	6	107	123.0	-219601.0	-87363.0	-5651138.0
16	14	20	6	107	124.0	-171723.0	-90826.0	-5651050.0
16	14	20	6	107	125.0	-98562.0	-94744.0	-5650267.0
16	14	20	6	108	126.0	-8136.0	-99417.0	-5650398.0
16	14	20	6	108	127.0	93906.0	-102879.0	-5651661.0
16	14	20	6	108	128.0	200184.0	-104852.0	-5651283.0
16	14	20	6	108	129.0	305793.0	-107332.0	-5650524.0
16	14	20	6	109	130.0	388737.0	-110806.0	-5649868.0
16	14	20	6	109	131.0	443871.0	-113134.0	-5650302.0
16	14	20	6	109	132.0	477469.0	-115144.0	-5651396.0
16	14	20	6	110	133.0	490484.0	-118018.0	-5650757.0
16	14	20	6	110	134.0	495453.0	-120444.0	-5650137.0
16	14	20	6	110	135.0	482416.0	-121916.0	-5650954.0
16	14	20	6	110	136.0	452858.0	-122485.0	-5651758.0
16	14	20	6	110	137.0	410814.0	-122725.0	-5651044.0
16	14	20	6	111	138.0	360489.0	-123654.0	-5650354.0
16	14	20	6	111	139.0	298894.0	-124888.0	-5650174.0
16	14	20	6	111	140.0	229822.0	-125773.0	-5651583.0
16	14	20	6	112	141.0	154585.0	-127683.0	-5651292.0
16	14	20	6	112	142.0	77058.0	-128397.0	-5650556.0
16	14	20	6	112	143.0	2744.0	-127703.0	-5650239.0
16	14	20	6	112	144.0	-68042.0	-127884.0	-5651671.0
16	14	20	6	113	145.0	-132949.0	-128097.0	-5651497.0
16	14	20	6	113	146.0	-180491.0	-127496.0	-5650739.0
16	14	20	6	113	147.0	-198462.0	-127921.0	-5650084.0
16	14	20	6	113	148.0	-180942.0	-128582.0	-5651270.0
16	14	20	6	185	149.0	-132208.0	-129105.0	-5651987.0
16	14	20	6	185	150.0	-73862.0	-128584.0	-5651296.0
16	14	20	6	185	151.0	-24328.0	-127330.0	-5650537.0
16	14	20	6	185	152.0	5382.0	-126930.0	-5650488.0
16	14	20	6	186	153.0	18554.0	-125613.0	-5651791.0
16	14	20	6	186	154.0	31731.0	-124522.0	-5651429.0
16	14	20	6	186	155.0	47121.0	-124486.0	-5650698.0
16	14	20	6	186	156.0	65529.0	-123956.0	-5651102.0
16	14	20	6	187	157.0	90313.0	-122376.0	-5652105.0
16	14	20	6	187	158.0	104548.0	-120045.0	-5651522.0
16	14	20	6	187	159.0	105198.0	-118681.0	-5650814.0
16	14	20	6	187	160.0	87453.0	-117118.0	-5650124.0
16	14	20	6	188	161.0	62352.0	-114594.0	-5650672.0
16	14	20	6	188	162.0	35842.0	-112144.0	-5651096.0
16	14	20	6	188	163.0	13205.0	-111274.0	-5650422.0
16	14	20	6	188	164.0	-16784.0	-109879.0	-5650559.0
16	14	20	6	189	165.0	-46492.0	-107474.0	-5651873.0
16	14	20	6	189	166.0	-80787.0	-104379.0	-5651317.0
16	14	20	6	189	167.0	-119016.0	-101580.0	-5650626.0
16	14	20	6	189	168.0	-151868.0	-98702.0	-5650060.0
16	14	20	6	189	169.0	-174609.0	-95771.0	-5651177.0
16	14	20	6	189	170.0	-181579.0	-92887.0	-5651407.0
16	14	20	6	190	171.0	-165054.0	-91214.0	-5650727.0
16	14	20	6	190	172.0	-112770.0	-88560.0	-5650055.0
16	14	20	6	190	173.0	-18656.0	-84834.0	-5650994.0
16	14	20	6	190	174.0	100691.0	-81593.0	-5651467.0
16	14	20	6	191	175.0	220272.0	-78019.0	-5650808.0
16	14	20	6	191	176.0	315078.0	-74004.0	-5650106.0
16	14	20	6	191	177.0	391206.0	-70569.0	-5651161.0
16	14	20	6	192	178.0	452696.0	-68551.0	-5651984.0
16	14	20	6	192	179.0	499971.0	-65708.0	-5651376.0
16	14	20	6	192	180.0	525333.0	-62001.0	-5650569.0
16	14	20	6	192	181.0	514699.0	-57695.0	-5650149.0
16	14	20	6	192	182.0	475179.0	-54423.0	-5651399.0
16	14	20	6	193	183.0	412706.0	-50612.0	-5651648.0
16	14	20	6	193	184.0	334489.0	-46299.0	-5650822.0
16	14	20	6	193	185.0	247426.0	-43382.0	-5650250.0
16	14	20	6	245	186.0	147254.0	-41307.0	-5651237.0
16	14	20	6	245	187.0	43785.0	-38571.0	-5651743.0
16	14	20	6	245	188.0	-59888.0	-33871.0	-5651009.0
16	14	20	6	246	189.0	-156496.0	-30186.0	-5650325.0
16	14	20	6	246	190.0	-251817.0	-27200.0	-5650066.0
16	14	20	6	246	191.0	-340602.0	-24456.0	-5651022.0
16	14	20	6	247	192.0	-411243.0	-21704.0	-5650587.0
16	14	20	6	247	193.0	-463477.0	-19725.0	-5650097.0
16	14	20	6	247	194.0	-499542.0	-17271.0	-5651251.0
16	14	20	6	247	195.0	-512607.0	-14113.0	-5651412.0
16	14	20	6	248	196.0	-499801.0	-10709.0	-5650638.0
16	14	20	6	248	197.0	-474134.0	-7654.0	-5649921.0
16	14	20	6	248	198.0	-446457.0	-5202.0	-5649926.0
16	14	20	6	248	199.0	-415664.0	-3123.0	-5651181.0
16	14	20	6	249	200.0	-370174.0	-2216.0	-5650707.0
16	14	20	6	249	201.0	-327830.0	-1271.0	-5649983.0
16	14	20	6	249	202.0	-284363.0	299.0	-5649936.0
16	14	20	6	249	203.0	-240837.0	3093.0	-5651484.0
16	14	20	6	250	204.0	-190697.0	5288.0	-5651191.0
16	14	20	6	250	205.0	-142816.0	6129.0	-5650469.0
16	14	20	6	250	206.0	-101594.0	7266.0	-5650261.0
16	14	20	6	250	207.0	-64574.0	8240.0	-5651756.0
16	14	20	6	251	208.0	-27507.0	8447.0	-5651669.0
16	14	20	6	251	209.0	9143.0	9276.0	-5650916.0
16	14	20	6	251	210.0	31548.0	10471.0	-5650228.0
16	14	20	6	252	211.0	44670.0	11771.0	-5650646.0
16	14	20	6	252	212.0	42934.0	12325.0	-5651692.0
16	14	20	6	252	213.0	41977.0	13062.0	-5651059.0
16	14	20	6	252	214.0	39267.0	13577.0	-5650329.0
16	14	20	6	253	215.0	40739.0	13298.0	-5650791.0
16	14	20	6	307	216.0	54214.0	12480.0	-5651946.0
16	14	20	6	307	217.0	77051.0	12543.0	-5651341.0
16	14	20	6	307	218.0	103480.0	13836.0	-5650646.0
16	14	20	6	307	219.0	141811.0	13419.0	-5650196.0
16	14	20	6	308	220.0	192548.0	13371.0	-5651652.0
16	14	20	6	308	221.0	234085.0	13254.0	-5651924.0
16	14	20	6	308	222.0	259016.0	12477.0	-5651232.0
16	14	20	6	308	223.0	269290.0	10776.0	-5650581.0
16	14	20	6	308	224.0	264168.0	9431.0	-5651360.0
16	14	20	6	309	225.0	247191.0	8700.0	-5651456.0
16	14	20	6	309	226.0	225048.0	8147.0	-5650776.0
16	14	20	6	309	227.0	186498.0	7173.0	-5650402.0
16	14	20	6	309	228.0	134814.0	6399.0	-5652015.0
16	14	20	6	310	229.0	69969.0	5269.0	-5651974.0
16	14	20	6	310	230.0	3251.0	3508.0	-5651272.0
16	14	20	6	310	231.0	-62234.0	1124.0	-5650502.0
16	14	20	6	310	232.0	-118819.0	-465.0	-5651052.0
16	14	20	6	311	233.0	-169417.0	-1087.0	-5651808.0
16	14	20	6	311	234.0	-211759.0	-1991.0	-5651200.0
16	14	20	6	311	235.0	-249402.0	-3714.0	-5650495.0
16	14	20	6	312	236.0	-282202.0	-5058.0	-5651501.0
16	14	20	6	312	237.0	-309319.0	-6324.0	-5652291.0
16	14	20	6	312	238.0	-320126.0	-8751.0	-5651679.0
16	14	20	6	312	239.0	-314728.0	-10413.0	-5650931.0
16	14	20	6	313	240.0	-298399.0	-11481.0	-5651038.0
16	14	20	6	313	241.0	-272972.0	-12256.0	-5652205.0
16	14	20	6	313	242.0	-242806.0	-13939.0	-5651797.0
16	14	20	6	313	243.0	-203497.0	-15332.0	-5650937.0
16	14	20	6	313	244.0	-164441.0	-17167.0	-5650774.0
16	14	20	6	314	245.0	-127596.0	-19341.0	-5652048.0
16	14	20	6	371	246.0	-103050.0	-22032.0	-5651804.0
16	14	20	6	371	247.0	-83966.0	-23743.0	-5651023.0
16	14	20	6	371	248.0	-70752.0	-24504.0	-5650424.0
16	14	20	6	372	249.0	-59321.0	-25849.0	-5651162.0
16	14	20	6	372	250.0	-40447.0	-27445.0	-5652110.0
16	14	20	6	372	251.0	-19652.0	-29104.0	-5651385.0
16	14	20	6	372	252.0	7663.0	-30977.0	-5650680.0
16	14	20	6	373	253.0	44681.0	-33944.0	-5650906.0
16	14	20	6	373	254.0	77181.0	-35722.0	-5651982.0
16	14	20	6	373	255.0	102329.0	-36322.0	-5651352.0
16	14	20	6	373	0.0	106574.0	-36839.0	-5650659.0
16	14	20	6	374	1.0	60466.0	-38324.0	-5650621.0
16	14	20	6	374	2.0	44409.0	-39377.0	-5651452.0
16	14	20	6	374	3.0	161505.0	-39850.0	-5650899.0
16	14	20	6	375	4.0	152289.0	-41629.0	-5650166.0
16	14	20	6	375	5.0	75862.0	-44211.0	-5650461.0
16	14	20	6	375	6.0	7687.0	-45221.0	-5651671.0
16	14	20	6	375	7.0	-21681.0	-45667.0	-5651133.0
16	14	20	6	376	8.0	-28572.0	-45554.0	-5650391.0
16	14	20	6	376	9.0	-27691.0	-45876.0	-5650676.0
16	14	20	6	376	10.0	-20253.0	-46887.0	-5651318.0
16	14	20	6	376	11.0	-19009.0	-47364.0	-5650737.0
16	14	20	6	377	12.0	-21321.0	-49205.0	-5650196.0
16	14	20	6	377	13.0	-28533.0	-50515.0	-5651162.0
16	14	20	6	377	14.0	-40436.0	-50221.0	-5651181.0
16	14	20	6	377	15.0	-57129.0	-49985.0	-5650480.0
16	14	20	6	378	16.0	-77306.0	-50604.0	-5650131.0
16	14	20	6	378	17.0	-97517.0	-51073.0	-5651056.0
16	14	20	6	378	18.0	-117017.0	-51357.0	-5650647.0
16	14	20	6	378	19.0	-140020.0	-52411.0	-5649976.0
16	14	20	6	437	20.0	-164722.0	-53712.0	-5650682.0
16	14	20	6	438	21.0	-181112.0	-53472.0	-5651344.0
16	14	20	6	438	22.0	-193062.0	-52755.0	-5650629.0
16	14	20	6	438	23.0	-212942.0	-52750.0	-5649927.0
16	14	20	6	438	24.0	-247484.0	-52615.0	-5649498.0
16	14	20	6	439	25.0	-279851.0	-53031.0	-5650909.0
16	14	20	6	439	26.0	-320457.0	-53224.0	-5650954.0
16	14	20	6	439	27.0	-358772.0	-53382.0	-5650212.0
16	14	20	6	439	28.0	-381660.0	-53551.0	-5650314.0
16	14	20	6	439	29.0	-393756.0	-53818.0	-5651773.0
16	14	20	6	440	30.0	-403823.0	-54331.0	-5651378.0
16	14	20	6	440	31.0	-404346.0	-54582.0	-5650632.0
16	14	20	6	440	32.0	-409391.0	-54329.0	-5650053.0
16	14	20	6	440	33.0	-412816.0	-53600.0	-5651114.0
16	14	20	6	441	34.0	-406572.0	-53997.0	-5651777.0
16	14	20	6	441	35.0	-388146.0	-54409.0	-5651044.0
16	14	20	6	441	36.0	-364042.0	-54245.0	-5650259.0
16	14	20	6	441	37.0	-341547.0	-54036.0	-5650546.0
16	14	20	6	442	38.0	-312497.0	-54123.0	-5651717.0
16	14	20	6	442	39.0	-284134.0	-53732.0	-5651151.0
16	14	20	6	442	40.0	-255642.0	-52471.0	-5650432.0
16	14	20	6	442	41.0	-218473.0	-51111.0	-5650336.0
16	14	20	6	443	42.0	-171636.0	-51521.0	-5651821.0
16	14	20	6	443	43.0	-125646.0	-51254.0	-5651558.0
16	14	20	6	443	44.0	-80861.0	-50460.0	-5650831.0
16	14	20	6	443	45.0	-31317.0	-49017.0	-5650171.0
16	14	20	6	444	46.0	21646.0	-47877.0	-5650824.0
16	14	20	6	444	47.0	65676.0	-46677.0	-5650985.0
16	14	20	6	444	48.0	112269.0	-45607.0	-5650394.0
16	14	20	6	444	49.0	170631.0	-45406.0	-5651164.0
16	14	20	6	445	50.0	226433.0	-45487.0	-5651930.0
16	14	20	6	445	51.0	270550.0	-44535.0	-5651167.0
16	14	20	6	445	52.0	302327.0	-42837.0	-5650524.0
16	14	20	6	505	53.0	327593.0	-41549.0	-5649815.0
16	14	20	6	505	54.0	344404.0	-40992.0	-5650529.0
16	14	20	6	506	55.0	361814.0	-39843.0	-5651269.0
16	14	20	6	506	56.0	386912.0	-38932.0	-5650651.0
16	14	20	6	506	57.0	409912.0	-38929.0	-5649953.0
16	14	20	6	507	58.0	435266.0	-38049.0	-5651216.0
16	14	20	6	507	59.0	457398.0	-35558.0	-5651984.0
16	14	20	6	507	60.0	471803.0	-34064.0	-5651374.0
16	14	20	6	507	61.0	470839.0	-33035.0	-5650614.0
16	14	20	6	507	62.0	452730.0	-32009.0	-5650613.0
16	14	20	6	508	63.0	419132.0	-30756.0	-5651858.0
16	14	20	6	508	64.0	373951.0	-30235.0	-5651536.0
16	14	20	6	508	65.0	325236.0	-30400.0	-5650713.0
16	14	20	6	508	66.0	262829.0	-29259.0	-5650502.0
16	14	20	6	509	67.0	192459.0	-27676.0	-5651818.0
16	14	20	6	509	68.0	126673.0	-26212.0	-5651689.0
16	14	20	6	509	69.0	58025.0	-25022.0	-5650874.0
16	14	20	6	509	70.0	-3325.0	-23906.0	-5650268.0
16	14	20	6	510	71.0	-37597.0	-22840.0	-5651049.0
16	14	20	6	510	72.0	-61174.0	-22424.0	-5651789.0
16	14	20	6	510	73.0	-91914.0	-20874.0	-5651032.0
16	14	20	6	510	74.0	-120269.0	-19504.0	-5650337.0
16	14	20	6	511	75.0	-128207.0	-18156.0	-5650336.0
16	14	20	6	511	76.0	-146335.0	-16953.0	-5651283.0
16	14	20	6	511	77.0	-180990.0	-15414.0	-5650756.0
16	14	20	6	511	78.0	-240051.0	-14554.0	-5650599.0
16	14	20	6	512	79.0	-320178.0	-14144.0	-5652051.0
16	14	20	6	512	80.0	-414484.0	-13910.0	-5651787.0
16	14	20	6	512	81.0	-517573.0	-13023.0	-5651066.0
16	14	20	6	512	82.0	-607874.0	-12107.0	-5650332.0
16	14	20	6	513	83.0	-675419.0	-10711.0	-5650022.0
16	14	20	6	513	84.0	-716730.0	-8652.0	-5651429.0
16	14	20	6	513	85.0	-726060.0	-7540.0	-5651274.0
16	14	20	6	573	86.0	-702462.0	-6647.0	-5650545.0
16	14	20	6	574	87.0	-642641.0	-6588.0	-5650279.0
16	14	20	6	574	88.0	-555846.0	-5245.0	-5651667.0
16	14	20	6	574	89.0	-446366.0	-2906.0	-5651532.0
16	14	20	6	575	90.0	-316225.0	-1370.0	-5650829.0
16	14	20	6	575	91.0	-185287.0	-519.0	-5650340.0
16	14	20	6	575	92.0	-77036.0	211.0	-5651636.0
16	14	20	6	575	93.0	-26721.0	1646.0	-5652007.0
16	14	20	6	576	94.0	-73030.0	2083.0	-5651241.0
16	14	20	6	576	95.0	-280652.0	2308.0	-5650521.0
16	14	20	6	576	96.0	-572027.0	3138.0	-5651009.0
16	14	20	6	577	97.0	-888927.0	4979.0	-5651910.0
16	14	20	6	577	98.0	-1098647.0	6467.0	-5651198.0
16	14	20	6	577	99.0	-1105857.0	7186.0	-5650440.0
16	14	20	6	577	100.0	-970721.0	7846.0	-5650091.0
16	14	20	6	578	101.0	-783782.0	9446.0	-5651339.0
16	14	20	6	578	102.0	-541128.0	9577.0	-5651270.0
16	14	20	6	578	103.0	-177534.0	10904.0	-5650564.0
16	14	20	6	578	104.0	311029.0	12432.0	-5649929.0
16	14	20	6	579	105.0	889964.0	13251.0	-5650575.0
16	14	20	6	579	106.0	1472252.0	14298.0	-5651586.0
16	14	20	6	579	107.0	1898371.0	15336.0	-5650995.0
16	14	20	6	579	108.0	1995932.0	16713.0	-5650276.0
16	14	20	6	580	109.0	1768198.0	16251.0	-5651016.0
16	14	20	6	580	110.0	1329726.0	15779.0	-5651820.0
16	14	20	6	580	111.0	807846.0	16411.0	-5651163.0
16	14	20	6	580	112.0	358900.0	18469.0	-5650363.0
16	14	20	6	581	113.0	1523.0	19625.0	-5650121.0
16	14	20	6	581	114.0	-228732.0	19818.0	-5651511.0
16	14	20	6	581	115.0	-322044.0	20265.0	-5651356.0
16	14	20	6	581	116.0	-279954.0	20345.0	-5650566.0
16	14	20	6	645	117.0	-88882.0	20016.0	-5650142.0
16	14	20	6	646	118.0	177311.0	20233.0	-5651466.0
16	14	20	6	646	119.0	423785.0	21544.0	-5651563.0
16	14	20	6	646	120.0	627501.0	22758.0	-5650814.0
16	14	20	6	647	121.0	832235.0	23657.0	-5650181.0
16	14	20	6	647	122.0	1044149.0	24577.0	-5650782.0
16	14	20	6	647	123.0	1230280.0	25105.0	-5652079.0
16	14	20	6	648	124.0	1355823.0	25873.0	-5651468.0
16	14	20	6	648	125.0	1375744.0	26119.0	-5650796.0
16	14	20	6	648	126.0	1293183.0	26450.0	-5651289.0
16	14	20	6	649	127.0	1133034.0	27203.0	-5652519.0
16	14	20	6	649	128.0	926218.0	27219.0	-5651866.0
16	14	20	6	649	129.0	711939.0	27058.0	-5651173.0
16	14	20	6	650	130.0	525158.0	27303.0	-5650546.0
16	14	20	6	650	131.0	383398.0	27617.0	-5651435.0
16	14	20	6	650	132.0	266220.0	26926.0	-5651571.0
16	14	20	6	650	133.0	147134.0	26376.0	-5650905.0
16	14	20	6	651	134.0	31884.0	25963.0	-5650497.0
16	14	20	6	651	135.0	-54131.0	25896.0	-5651607.0
16	14	20	6	651	136.0	-85154.0	26124.0	-5651323.0
16	14	20	6	652	137.0	-74262.0	26114.0	-5650828.0
16	14	20	6	652	138.0	-26237.0	27167.0	-5651915.0
16	14	20	6	652	139.0	25327.0	27420.0	-5652086.0
16	14	20	6	652	140.0	67697.0	28726.0	-5651348.0
16	14	20	6	653	141.0	94696.0	29348.0	-5650662.0
16	14	20	6	653	142.0	86614.0	29080.0	-5650815.0
16	14	20	6	653	143.0	36251.0	29094.0	-5651409.0
16	14	20	6	653	144.0	-37595.0	29217.0	-5650786.0
16	14	20	6	654	145.0	-118782.0	29227.0	-5650529.0
16	14	20	6	654	146.0	-202040.0	29033.0	-5651691.0
16	14	20	6	654	147.0	-279318.0	27744.0	-5651301.0
16	14	20	6	655	148.0	-342967.0	27106.0	-5650579.0
16	14	20	6	655	149.0	-412429.0	27018.0	-5650167.0
16	14	20	6	655	150.0	-478204.0	27588.0	-5651610.0
16	14	20	6	655	151.0	-529630.0	28058.0	-5651717.0
16	14	20	6	656	152.0	-569046.0	28333.0	-5651002.0
16	14	20	6	656	153.0	-591762.0	28157.0	-5650246.0
16	14	20	6	656	154.0	-604977.0	26497.0	-5650409.0
16	14	20	6	657	155.0	-596858.0	25430.0	-5651824.0
16	14	20	6	657	156.0	-564908.0	25842.0	-5651424.0
16	14	20	6	716	157.0	-514711.0	25754.0	-5650640.0
16	14	20	6	716	158.0	-462474.0	24778.0	-5651314.0
16	14	20	6	717	159.0	-420033.0	25060.0	-5652318.0
16	14	20	6	717	160.0	-382775.0	24834.0	-5651738.0
16	14	20	6	717	161.0	-345359.0	24181.0	-5651006.0
16	14	20	6	717	162.0	-304824.0	23023.0	-5650531.0
16	14	20	6	718	163.0	-266247.0	22266.0	-5651494.0
16	14	20	6	718	164.0	-219614.0	22225.0	-5651757.0
16	14	20	6	718	165.0	-165613.0	22354.0	-5650964.0
16	14	20	6	718	166.0	-123379.0	22501.0	-5650518.0
16	14	20	6	719	167.0	-79424.0	22433.0	-5651736.0
16	14	20	6	719	168.0	-40804.0	21809.0	-5651995.0
16	14	20	6	719	169.0	-12249.0	20629.0	-5651225.0
16	14	20	6	719	170.0	12366.0	19169.0	-5650814.0
16	14	20	6	720	171.0	28746.0	19024.0	-5652127.0
16	14	20	6	720	172.0	34644.0	19648.0	-5652436.0
16	14	20	6	720	173.0	34806.0	19603.0	-5651637.0
16	14	20	6	720	174.0	26211.0	19755.0	-5650929.0
16	14	20	6	721	175.0	4611.0	19833.0	-5651122.0
16	14	20	6	721	176.0	-15953.0	19481.0	-5652224.0
16	14	20	6	721	177.0	-37767.0	18797.0	-5651579.0
16	14	20	6	721	178.0	-56291.0	18859.0	-5650862.0
16	14	20	6	722	179.0	-79586.0	20399.0	-5651093.0
16	14	20	6	722	180.0	-91832.0	21256.0	-5652002.0
16	14	20	6	722	181.0	-102925.0	22101.0	-5651332.0
16	14	20	6	722	182.0	-103786.0	23106.0	-5650657.0
16	14	20	6	722	183.0	-92127.0	24196.0	-5650219.0
16	14	20	6	723	184.0	-61088.0	24146.0	-5651131.0
16	14	20	6	723	185.0	-105241.0	25159.0	-5650787.0
16	14	20	6	723	186.0	-184161.0	26886.0	-5650329.0
16	14	20	6	723	187.0	35292.0	29876.0	-5651627.0
16	14	20	6	724	188.0	152653.0	32714.0	-5651876.0
16	14	20	6	724	189.0	201165.0	36026.0	-5650912.0
16	14	20	6	724	190.0	214429.0	38982.0	-5650006.0
16	14	20	6	724	191.0	289562.0	43261.0	-5650467.0
16	14	20	6	804	192.0	300366.0	47361.0	-5651234.0
16	14	20	6	805	193.0	214065.0	52319.0	-5650649.0
16	14	20	6	805	194.0	83440.0	58863.0	-5649902.0
16	14	20	6	805	195.0	-34298.0	64784.0	-5650150.0
16	14	20	6	805	196.0	-107284.0	70562.0	-5650497.0
16	14	20	6	806	197.0	-150145.0	76876.0	-5649857.0
16	14	20	6	806	198.0	-172719.0	83347.0	-5650273.0
16	14	20	6	806	199.0	-175534.0	88913.0	-5651399.0
16	14	20	6	807	200.0	-172424.0	94874.0	-5650751.0
16	14	20	6	807	201.0	-188024.0	101901.0	-5650063.0
16	14	20	6	807	202.0	-211491.0	109058.0	-5649637.0
16	14	20	6	807	203.0	-239868.0	115746.0	-5651062.0
16	14	20	6	808	204.0	-271360.0	123149.0	-5651083.0
16	14	20	6	808	205.0	-284001.0	129278.0	-5650385.0
16	14	20	6	808	206.0	-287493.0	135534.0	-5649944.0
16	14	20	6	809	207.0	-277646.0	141001.0	-5651345.0
16	14	20	6	809	208.0	-256459.0	147083.0	-5651224.0
16	14	20	6	809	209.0	-230840.0	153548.0	-5650541.0
16	14	20	6	809	210.0	-202299.0	159913.0	-5649782.0
16	14	20	6	809	211.0	-165941.0	165299.0	-5649741.0
16	14	20	6	810	212.0	-132140.0	169794.0	-5651183.0
16	14	20	6	810	213.0	-100564.0	174330.0	-5650973.0
16	14	20	6	810	214.0	-74376.0	177118.0	-5650146.0
16	14	20	6	810	215.0	-43249.0	180400.0	-5649826.0
16	14	20	6	811	216.0	-10174.0	184707.0	-5651133.0
16	14	20	6	811	217.0	14624.0	188899.0	-5651100.0
16	14	20	6	811	218.0	37469.0	192138.0	-5650279.0
16	14	20	6	811	219.0	58728.0	195083.0	-5650081.0
16	14	20	6	812	220.0	78200.0	198045.0	-5651442.0
16	14	20	6	812	221.0	93261.0	199728.0	-5651331.0
16	14	20	6	812	222.0	107889.0	200627.0	-5650564.0
16	14	20	6	812	223.0	124825.0	202279.0	-5649957.0
16	14	20	6	813	224.0	145329.0	204301.0	-5650701.0
16	14	20	6	813	225.0	170513.0	205050.0	-5651377.0
16	14	20	6	813	226.0	191389.0	204729.0	-5650640.0
16	14	20	6	814	227.0	216746.0	204363.0	-5649927.0
16	14	20	6	814	228.0	257745.0	203858.0	-5650417.0
16	14	20	6	814	229.0	316759.0	201413.0	-5651666.0
16	14	20	6	815	230.0	389861.0	199427.0	-5651076.0
16	14	20	6	815	231.0	466191.0	198178.0	-5650404.0
16	14	20	6	815	232.0	541776.0	197116.0	-5649690.0
16	14	20	6	816	233.0	595986.0	195293.0	-5650570.0
16	14	20	6	816	234.0	630749.0	193133.0	-5651241.0
16	14	20	6	816	235.0	642374.0	190242.0	-5650569.0
16	14	20	6	816	236.0	634083.0	185342.0	-5649920.0
16	14	20	6	903	237.0	605564.0	179919.0	-5651030.0
16	14	20	6	903	238.0	550278.0	175791.0	-5651457.0
16	14	20	6	904	239.0	438703.0	172026.0	-5650766.0
16	14	20	6	904	240.0	246731.0	167404.0	-5650024.0
16	14	20	6	904	241.0	-65622.0	162186.0	-5650181.0
16	14	20	6	905	242.0	-451026.0	156778.0	-5651549.0
16	14	20	6	905	243.0	-856684.0	151370.0	-5651124.0
16	14	20	6	905	244.0	-1069099.0	144229.0	-5650313.0
16	14	20	6	906	245.0	-965921.0	137299.0	-5649822.0
16	14	20	6	906	246.0	-647330.0	131553.0	-5651051.0
16	14	20	6	906	247.0	-408393.0	125734.0	-5651455.0
16	14	20	6	907	248.0	-200337.0	119119.0	-5650694.0
16	14	20	6	907	249.0	776.0	113041.0	-5650041.0
16	14	20	6	907	250.0	139979.0	106638.0	-5650107.0
16	14	20	6	908	251.0	154146.0	99401.0	-5651120.0
16	14	20	6	908	252.0	59132.0	91368.0	-5650666.0
16	14	20	6	908	253.0	-82654.0	83856.0	-5649999.0
16	14	20	6	908	254.0	-238956.0	78385.0	-5650647.0
16	14	20	6	909	255.0	-371492.0	73044.0	-5650978.0
16	14	20	6	909	0.0	-478177.0	66361.0	-5650333.0
16	14	20	6	909	1.0	-565064.0	59143.0	-5650043.0
16	14	20	6	910	2.0	-651316.0	51704.0	-5651464.0
16	14	20	6	910	3.0	-740784.0	43756.0	-5651224.0
16	14	20	6	910	4.0	-829296.0	36449.0	-5650552.0
16	14	20	6	910	5.0	-900897.0	29791.0	-5649775.0
16	14	20	6	911	6.0	-928351.0	24015.0	-5649926.0
16	14	20	6	911	7.0	-903058.0	17617.0	-5651260.0
16	14	20	6	912	8.0	-811370.0	10328.0	-5650913.0
16	14	20	6	912	9.0	-658134.0	3526.0	-5650129.0
16	14	20	6	912	10.0	-477731.0	-3948.0	-5650146.0
16	14	20	6	913	11.0	-303886.0	-11224.0	-5651512.0
16	14	20	6	913	12.0	-160354.0	-17855.0	-5651232.0
16	14	20	6	913	13.0	-30485.0	-23344.0	-5650437.0
16	14	20	6	914	14.0	85296.0	-28896.0	-5650189.0
16	14	20	6	914	15.0	184864.0	-34747.0	-5651628.0
16	14	20	6	914	16.0	252943.0	-39877.0	-5651666.0
16	14	20	6	914	17.0	297566.0	-45880.0	-5650890.0
16	14	20	6	915	18.0	316893.0	-52374.0	-5650215.0
16	14	20	6	915	19.0	326987.0	-59054.0	-5649819.0
16	14	20	6	915	20.0	324610.0	-63438.0	-5651271.0
16	14	20	6	915	21.0	323301.0	-67255.0	-5650468.0
16	14	20	6	916	22.0	332393.0	-72128.0	-5649628.0
16	14	20	6	916	23.0	347312.0	-75769.0	-5650457.0
16	14	20	6	916	24.0	362286.0	-80251.0	-5651197.0
16	14	20	6	917	25.0	372410.0	-84461.0	-5651310.0
16	14	20	6	917	26.0	364371.0	-89753.0	-5650005.0
16	14	20	6	917	27.0	330035.0	-93194.0	-5650020.0
16	14	20	6	917	28.0	275238.0	-95899.0	-5651591.0
16	14	20	6	918	29.0	225858.0	-98946.0	-5651725.0
16	14	20	6	918	30.0	231902.0	-102005.0	-5651017.0
16	14	20	6	918	31.0	284334.0	-104639.0	-5650684.0
16	14	20	6	918	32.0	329081.0	-107085.0	-5652129.0
16	14	20	6	919	33.0	334161.0	-110351.0	-5651931.0
16	14	20	6	919	34.0	320171.0	-113030.0	-5651268.0
16	14	20	6	919	35.0	306119.0	-114417.0	-5650457.0
16	14	20	6	920	36.0	306853.0	-115932.0	-5650266.0
16	14	20	6	920	37.0	318839.0	-117709.0	-5651541.0
16	14	20	6	920	38.0	336508.0	-119277.0	-5651414.0
16	14	20	6	921	39.0	352813.0	-119870.0	-5650579.0
16	14	20	6	922	40.0	367416.0	-121550.0	-5650614.0
16	14	20	6	995	41.0	369149.0	-124085.0	-5652102.0
16	14	20	6	996	42.0	358860.0	-124820.0	-5651848.0
16	14	20	6	996	43.0	337068.0	-124585.0	-5651082.0
16	14	20	6	997	44.0	297084.0	-124697.0	-5650733.0
16	14	20	6	997	45.0	241105.0	-124253.0	-5652077.0
16	14	20	6	997	46.0	190776.0	-124406.0	-5652233.0
16	14	20	6	998	47.0	152501.0	-125459.0	-5651446.0
16	14	20	6	998	48.0	100006.0	-126773.0	-5650756.0
16	14	20	6	998	49.0	29014.0	-126686.0	-5651186.0
16	14	20	6	998	50.0	-54796.0	-126045.0	-5652299.0
16	14	20	6	999	51.0	-94000.0	-125434.0	-5651627.0
16	14	20	6	999	52.0	-74053.0	-124956.0	-5650936.0
16	14	20	6	999	53.0	-137181.0	-124693.0	-5650894.0
16	14	20	7	0	54.0	-168435.0	-123578.0	-5652471.0
16	14	20	7	0	55.0	-136912.0	-123006.0	-5652146.0
16	14	20	7	0	56.0	-124203.0	-122846.0	-5651443.0
16	14	20	7	0	57.0	-109452.0	-121881.0	-5650704.0
16	14	20	7	1	58.0	-136416.0	-120556.0	-5651477.0
16	14	20	7	1	59.0	-116266.0	-119516.0	-5652302.0
16	14	20	7	1	60.0	-57362.0	-118670.0	-5651661.0
16	14	20	7	2	61.0	23708.0	-117926.0	-5651068.0
16	14	20	7	2	62.0	54403.0	-117032.0	-5652129.0
16	14	20	7	2	63.0	29034.0	-116655.0	-5652375.0
16	14	20	7	3	64.0	-34311.0	-114915.0	-5651667.0
16	14	20	7	3	65.0	-77052.0	-111662.0	-5650941.0
16	14	20	7	3	66.0	4449.0	-109469.0	-5651297.0
16	14	20	7	3	67.0	122663.0	-108115.0	-5652429.0
16	14	20	7	4	68.0	125644.0	-105323.0	-5651921.0
16	14	20	7	4	69.0	81111.0	-103331.0	-5651152.0
16	14	20	7	4	70.0	86845.0	-101696.0	-5651114.0
16	14	20	7	5	71.0	157026.0	-99431.0	-5652463.0
16	14	20	7	5	72.0	205918.0	-96109.0	-5652126.0
16	14	20	7	5	73.0	236082.0	-92422.0	-5651374.0
16	14	20	7	6	74.0	235959.0	-88804.0	-5650742.0
16	14	20	7	6	75.0	222448.0	-85427.0	-5651245.0
16	14	20	7	7	76.0	189114.0	-82479.0	-5651830.0
16	14	20	7	7	77.0	151979.0	-79223.0	-5651216.0
16	14	20	7	7	78.0	117978.0	-77155.0	-5650910.0
16	14	20	7	7	79.0	94467.0	-73695.0	-5652350.0
16	14	20	7	8	80.0	73130.0	-70305.0	-5652142.0
16	14	20	7	8	81.0	68271.0	-66472.0	-5651431.0
16	14	20	7	9	82.0	95618.0	-63232.0	-5650802.0
16	14	20	7	9	83.0	122599.0	-60284.0	-5651469.0
16	14	20	7	9	84.0	162678.0	-57173.0	-5651370.0
16	14	20	7	100	85.0	222681.0	-54175.0	-5650709.0
16	14	20	7	100	86.0	299522.0	-51417.0	-5650419.0
16	14	20	7	101	87.0	373859.0	-47639.0	-5651976.0
16	14	20	7	101	88.0	426604.0	-44015.0	-5651785.0
16	14	20	7	101	89.0	463656.0	-40249.0	-5651099.0
16	14	20	7	102	90.0	468918.0	-36681.0	-5650666.0
16	14	20	7	102	91.0	458988.0	-33426.0	-5651966.0
16	14	20	7	102	92.0	449351.0	-30856.0	-5651878.0
16	14	20	7	103	93.0	447268.0	-29014.0	-5651199.0
16	14	20	7	103	94.0	425155.0	-26521.0	-5650476.0
16	14	20	7	103	95.0	355509.0	-22552.0	-5651357.0
16	14	20	7	104	96.0	271896.0	-19885.0	-5652280.0
16	14	20	7	104	97.0	195680.0	-17575.0	-5651641.0
16	14	20	7	104	98.0	119346.0	-15197.0	-5650842.0
16	14	20	7	105	99.0	38737.0	-13246.0	-5650759.0
16	14	20	7	105	100.0	-38526.0	-12065.0	-5651521.0
16	14	20	7	105	101.0	-117689.0	-9558.0	-5651772.0
16	14	20	7	105	102.0	-194439.0	-7768.0	-5650342.0
16	14	20	7	106	103.0	-255293.0	-3560.0	-5650261.0
16	14	20	7	106	104.0	-308694.0	-1837.0	-5651220.0
16	14	20	7	106	105.0	-355602.0	-377.0	-5651736.0
16	14	20	7	107	106.0	-399489.0	1630.0	-5651329.0
16	14	20	7	107	107.0	-440959.0	1984.0	-5650138.0
16	14	20	7	107	108.0	-479981.0	3421.0	-5651425.0
16	14	20	7	108	109.0	-507979.0	4653.0	-5652449.0
16	14	20	7	108	110.0	-544402.0	6056.0	-5651778.0
16	14	20	7	108	111.0	-595811.0	7643.0	-5651034.0
16	14	20	7	108	112.0	-649764.0	8654.0	-5651396.0
16	14	20	7	109	113.0	-686999.0	9701.0	-5652135.0
16	14	20	7	109	114.0	-702039.0	11054.0	-5651552.0
16	14	20	7	109	115.0	-702267.0	11019.0	-5650780.0
16	14	20	7	110	116.0	-688770.0	10834.0	-5650812.0
16	14	20	7	110	117.0	-668440.0	11567.0	-5652276.0
16	14	20	7	110	118.0	-630052.0	13114.0	-5651982.0
16	14	20	7	111	119.0	-608592.0	13452.0	-5651193.0
16	14	20	7	111	120.0	-589440.0	13067.0	-5651097.0
16	14	20	7	112	121.0	-573859.0	12738.0	-5652577.0
16	14	20	7	112	122.0	-571551.0	12336.0	-5652404.0
16	14	20	7	113	123.0	-580014.0	11663.0	-5651681.0
16	14	20	7	113	124.0	-584785.0	12591.0	-5651106.0
16	14	20	7	114	125.0	-591609.0	12429.0	-5651941.0
16	14	20	7	114	126.0	-589711.0	12248.0	-5652769.0
16	14	20	7	114	127.0	-591067.0	11415.0	-5652039.0
16	14	20	7	115	128.0	-582788.0	10259.0	-5651387.0
16	14	20	7	115	129.0	-615075.0	9329.0	-5651784.0
16	14	20	7	116	130.0	-585796.0	8014.0	-5652607.0
16	14	20	7	116	131.0	-549996.0	6924.0	-5651864.0
16	14	20	7	116	132.0	-531129.0	5809.0	-5651184.0
16	14	20	7	117	133.0	-498059.0	4860.0	-5650611.0
16	14	20	7	117	134.0	-441962.0	3954.0	-5651359.0
16	14	20	7	117	135.0	-384000.0	3642.0	-5651282.0
