16	16	10	31	748	44.0	-2235497.0	-28622.0	-781698.0
16	16	10	31	749	45.0	-2206355.0	-27896.0	-782006.0
16	16	10	31	749	46.0	-2171927.0	-27057.0	-781777.0
16	16	10	31	750	47.0	-2107329.0	-26521.0	-782098.0
16	16	10	31	751	48.0	-1951230.0	-25786.0	-781874.0
16	16	10	31	761	49.0	-1777711.0	-27774.0	-782267.0
16	16	10	31	761	50.0	-1586428.0	-28807.0	-781856.0
16	16	10	31	762	51.0	-1374653.0	-26621.0	-781981.0
16	16	10	31	763	52.0	-1140995.0	-25523.0	-781750.0
16	16	10	31	763	53.0	-920879.0	-25929.0	-781911.0
16	16	10	31	764	54.0	-736697.0	-24251.0	-781757.0
16	16	10	31	764	55.0	-544080.0	-22649.0	-781919.0
16	16	10	31	795	56.0	-309400.0	-22976.0	-781939.0
16	16	10	31	796	57.0	216321.0	-23514.0	-782232.0
16	16	10	31	796	58.0	936739.0	-21357.0	-782141.0
16	16	10	31	797	59.0	2373138.0	-19775.0	-782277.0
16	16	10	31	797	60.0	4451276.0	-20308.0	-782273.0
16	16	10	31	797	61.0	5200691.0	-19817.0	-782402.0
16	16	10	31	798	62.0	5542704.0	-17586.0	-782635.0
16	16	10	31	798	63.0	5717513.0	-16468.0	-782412.0
16	16	10	31	798	64.0	5764496.0	-18120.0	-782669.0
16	16	10	31	799	65.0	5728688.0	-17536.0	-782474.0
16	16	10	31	799	66.0	6023555.0	-16244.0	-782861.0
16	16	10	31	799	67.0	7406748.0	-16220.0	-782691.0
16	16	10	31	824	68.0	8388607.0	-17174.0	-783010.0
16	16	10	31	869	69.0	8380207.0	-15739.0	-782884.0
16	16	10	31	869	70.0	7076581.0	-14572.0	-782944.0
16	16	10	31	892	71.0	5932295.0	-15157.0	-782973.0
16	16	10	31	893	72.0	5656151.0	-14556.0	-783017.0
16	16	10	31	893	73.0	5701176.0	-12984.0	-783174.0
16	16	10	31	894	74.0	6433714.0	-12617.0	-783057.0
16	16	10	31	894	75.0	7446543.0	-11774.0	-783464.0
16	16	10	31	895	76.0	8231528.0	-11314.0	-783219.0
16	16	10	31	895	77.0	8388607.0	-10986.0	-783588.0
16	16	10	31	896	78.0	8388607.0	-10322.0	-783359.0
16	16	10	31	897	79.0	8388607.0	-10078.0	-783645.0
16	16	10	31	897	80.0	7857410.0	-10089.0	-783206.0
16	16	10	31	898	81.0	7110680.0	-9913.0	-783239.0
16	16	10	31	898	82.0	6256916.0	-10218.0	-783050.0
16	16	10	31	899	85.0	2736011.0	-9615.0	-782977.0
16	16	10	31	899	107.0	164308.0	-13366.0	-782303.0
16	16	10	31	900	108.0	-312031.0	-13587.0	-782417.0
16	16	10	31	907	109.0	-1248485.0	-15996.0	-782267.0
16	16	10	31	907	110.0	-2048732.0	-17693.0	-782124.0
16	16	10	31	908	111.0	-2660581.0	-18760.0	-782243.0
16	16	10	31	909	112.0	-3045692.0	-19894.0	-782009.0
16	16	10	31	909	113.0	-3323181.0	-20228.0	-782314.0
16	16	10	31	921	114.0	-3627929.0	-20323.0	-781896.0
16	16	10	31	921	115.0	-3694534.0	-20174.0	-782162.0
16	16	10	31	925	116.0	-3492204.0	-17722.0	-782013.0
16	16	10	31	926	117.0	-3056274.0	-15934.0	-782329.0
16	16	10	31	926	118.0	-2491451.0	-14792.0	-782054.0
16	16	10	31	927	119.0	-1853609.0	-13960.0	-782434.0
16	16	10	31	927	120.0	-1241281.0	-13003.0	-782224.0
16	16	10	31	928	121.0	-556006.0	-12133.0	-782611.0
16	16	10	31	928	122.0	123106.0	-11919.0	-782428.0
16	16	10	31	928	123.0	805313.0	-11741.0	-782792.0
16	16	10	31	929	124.0	1551695.0	-10126.0	-782734.0
16	16	10	31	942	125.0	2320084.0	-9336.0	-782989.0
16	16	10	31	942	126.0	3087009.0	-8745.0	-782972.0
16	16	10	31	943	127.0	3711298.0	-8053.0	-783126.0
16	16	10	31	943	128.0	4279113.0	-7517.0	-783381.0
16	16	10	31	943	130.0	5073911.0	-7011.0	-783246.0
16	16	10	31	944	131.0	5228329.0	-8602.0	-782941.0
16	16	10	31	944	132.0	5157681.0	-11194.0	-783286.0
16	16	10	31	944	133.0	5049523.0	-12127.0	-783092.0
16	16	10	31	945	134.0	4876013.0	-13051.0	-783226.0
16	16	10	31	945	135.0	4649760.0	-13356.0	-783032.0
16	16	10	31	960	136.0	4362378.0	-13094.0	-783259.0
16	16	10	31	961	137.0	4056536.0	-12474.0	-783123.0
16	16	10	31	961	138.0	3731834.0	-9657.0	-783352.0
16	16	10	31	961	139.0	3426808.0	-6680.0	-783346.0
16	16	10	31	962	140.0	3146654.0	-4595.0	-783299.0
16	16	10	31	962	141.0	2826838.0	-3061.0	-783187.0
16	16	10	31	963	142.0	2534513.0	-2205.0	-783206.0
16	16	10	31	978	143.0	2241058.0	-2417.0	-783394.0
16	16	10	31	978	144.0	2015952.0	-2156.0	-783153.0
16	16	10	31	979	145.0	1800845.0	-1169.0	-783289.0
16	16	10	31	979	146.0	1672502.0	-540.0	-783131.0
16	16	10	31	979	147.0	1589638.0	-796.0	-783186.0
16	16	10	31	980	148.0	1487858.0	-474.0	-782904.0
16	16	10	31	980	149.0	1345690.0	-621.0	-783262.0
16	16	10	31	980	150.0	1123874.0	-492.0	-782974.0
16	16	10	31	980	152.0	622283.0	398.0	-782846.0
16	16	10	31	981	153.0	353956.0	-97.0	-783054.0
16	16	10	31	981	154.0	62235.0	-2979.0	-782801.0
16	16	10	31	981	155.0	-186991.0	-4997.0	-783007.0
16	16	10	31	981	156.0	-378776.0	-5766.0	-782776.0
16	16	10	31	982	157.0	-494096.0	-6606.0	-782884.0
16	16	10	31	982	158.0	-536994.0	-6601.0	-782823.0
16	16	10	32	4	159.0	-577513.0	-6865.0	-782846.0
16	16	10	32	30	160.0	-551344.0	-6822.0	-782909.0
16	16	10	32	30	161.0	-466813.0	-4031.0	-782736.0
16	16	10	32	31	162.0	-283349.0	-1964.0	-782867.0
16	16	10	32	31	163.0	-47696.0	-449.0	-782649.0
16	16	10	32	31	164.0	248871.0	1159.0	-783024.0
16	16	10	32	32	165.0	530493.0	2236.0	-782746.0
16	16	10	32	37	166.0	768441.0	3046.0	-782971.0
16	16	10	32	37	167.0	924154.0	3327.0	-782689.0
16	16	10	32	37	168.0	1061415.0	3696.0	-782848.0
16	16	10	32	38	169.0	1202133.0	4567.0	-782612.0
16	16	10	32	38	170.0	1362583.0	4466.0	-782946.0
16	16	10	32	38	171.0	1571461.0	5104.0	-782972.0
16	16	10	32	39	172.0	1867236.0	5245.0	-782961.0
16	16	10	32	39	173.0	2208446.0	6011.0	-783062.0
16	16	10	32	39	175.0	2839201.0	7251.0	-783365.0
16	16	10	32	40	176.0	3072107.0	5190.0	-783364.0
16	16	10	32	40	177.0	3204251.0	3026.0	-783408.0
16	16	10	32	40	178.0	3234537.0	1842.0	-783311.0
16	16	10	32	41	179.0	3163912.0	901.0	-783429.0
16	16	10	32	41	180.0	2989433.0	229.0	-783081.0
16	16	10	32	47	181.0	2722382.0	-139.0	-783221.0
16	16	10	32	48	182.0	2385744.0	-42.0	-782911.0
16	16	10	32	48	183.0	2043440.0	2746.0	-783316.0
16	16	10	32	66	184.0	1674063.0	5136.0	-783077.0
16	16	10	32	66	185.0	1118321.0	5689.0	-783201.0
16	16	10	32	66	186.0	136256.0	6623.0	-782822.0
16	16	10	32	66	187.0	-1310553.0	7470.0	-782823.0
16	16	10	32	67	188.0	-2760272.0	8156.0	-782373.0
16	16	10	32	67	189.0	-3838858.0	8306.0	-782357.0
16	16	10	32	67	190.0	-4350718.0	9545.0	-782203.0
16	16	10	32	67	191.0	-4288141.0	11019.0	-782295.0
16	16	10	32	68	192.0	-3759962.0	10868.0	-782376.0
16	16	10	32	68	193.0	-2950252.0	10848.0	-782337.0
16	16	10	32	68	194.0	-1892554.0	10279.0	-782611.0
16	16	10	32	68	195.0	-692752.0	10444.0	-782535.0
16	16	10	32	69	197.0	1505194.0	10189.0	-782747.0
16	16	10	32	69	198.0	2252368.0	9411.0	-783068.0
16	16	10	32	69	199.0	2626814.0	6792.0	-782764.0
16	16	10	32	69	200.0	2544812.0	5142.0	-782993.0
16	16	10	32	69	201.0	1982948.0	4172.0	-782683.0
16	16	10	32	70	202.0	1167041.0	3631.0	-782929.0
16	16	10	32	70	203.0	144584.0	2838.0	-782737.0
16	16	10	32	92	204.0	-1028259.0	2488.0	-782571.0
16	16	10	32	93	205.0	-2271499.0	2575.0	-782264.0
16	16	10	32	93	206.0	-3352871.0	4848.0	-782256.0
16	16	10	32	93	207.0	-4053736.0	7229.0	-781977.0
16	16	10	32	94	208.0	-4290719.0	8549.0	-782069.0
16	16	10	32	94	209.0	-4160922.0	10113.0	-781748.0
16	16	10	32	105	210.0	-3826581.0	11264.0	-782061.0
16	16	10	32	106	211.0	-3442231.0	11721.0	-781906.0
16	16	10	32	106	212.0	-3079571.0	12121.0	-781879.0
16	16	10	32	106	213.0	-2740709.0	12631.0	-781737.0
16	16	10	32	107	214.0	-2416825.0	12604.0	-781740.0
16	16	10	32	107	215.0	-2105291.0	12634.0	-781916.0
16	16	10	32	107	216.0	-1836016.0	11808.0	-781832.0
16	16	10	32	137	217.0	-1659179.0	11874.0	-781882.0
16	16	10	32	138	218.0	-1590991.0	11629.0	-781689.0
16	16	10	32	138	220.0	-1648284.0	11951.0	-781858.0
16	16	10	32	138	221.0	-1716807.0	10264.0	-782183.0
16	16	10	32	139	222.0	-1791304.0	8280.0	-781981.0
16	16	10	32	139	223.0	-1897134.0	7155.0	-782138.0
16	16	10	32	156	224.0	-2001881.0	6012.0	-781906.0
16	16	10	32	156	225.0	-2118476.0	6528.0	-782071.0
16	16	10	32	157	226.0	-2235645.0	8014.0	-781947.0
16	16	10	32	157	227.0	-2369449.0	9598.0	-781978.0
16	16	10	32	157	228.0	-2483668.0	10949.0	-782082.0
16	16	10	32	157	229.0	-2625811.0	11141.0	-781996.0
16	16	10	32	158	230.0	-2821449.0	11399.0	-782174.0
16	16	10	32	158	231.0	-3076154.0	12124.0	-781895.0
16	16	10	32	158	232.0	-3343406.0	12572.0	-782214.0
16	16	10	32	159	242.0	-5636617.0	14111.0	-782089.0
16	16	10	32	159	243.0	-6123727.0	12835.0	-781873.0
16	16	10	32	159	244.0	-6568133.0	9132.0	-781886.0
16	16	10	32	159	245.0	-7303915.0	6837.0	-781796.0
16	16	10	32	160	246.0	-8388608.0	5453.0	-781486.0
16	16	10	32	160	247.0	-8388608.0	4192.0	-781541.0
16	16	10	32	160	248.0	-8388608.0	2797.0	-781353.0
16	16	10	32	183	249.0	-8388608.0	1676.0	-781592.0
16	16	10	32	184	250.0	-8388608.0	1457.0	-781391.0
16	16	10	32	184	251.0	-8388608.0	4301.0	-781695.0
16	16	10	32	185	252.0	-8388608.0	6411.0	-781576.0
16	16	10	32	201	253.0	-8388608.0	7764.0	-781877.0
16	16	10	32	201	254.0	-7966143.0	8478.0	-781707.0
16	16	10	32	202	255.0	-6968744.0	9851.0	-782047.0
16	16	10	32	202	0.0	-6113787.0	11391.0	-782039.0
16	16	10	32	202	1.0	-5410517.0	12683.0	-782481.0
16	16	10	32	202	2.0	-4828327.0	13768.0	-782604.0
16	16	10	32	203	3.0	-4322614.0	14651.0	-782415.0
16	16	10	32	203	4.0	-3887389.0	15827.0	-782527.0
16	16	10	32	203	5.0	-3502625.0	16345.0	-782407.0
16	16	10	32	203	6.0	-3315133.0	17244.0	-782666.0
16	16	10	32	204	7.0	-3072521.0	18524.0	-782321.0
16	16	10	32	204	9.0	-2613669.0	21518.0	-782181.0
16	16	10	32	204	10.0	-2471314.0	20944.0	-782472.0
16	16	10	32	204	11.0	-2385751.0	20805.0	-782082.0
16	16	10	32	204	12.0	-2347447.0	21511.0	-782289.0
16	16	10	32	205	13.0	-2343215.0	22687.0	-782146.0
16	16	10	32	205	14.0	-2377154.0	24178.0	-782477.0
16	16	10	32	228	15.0	-2435642.0	26009.0	-782099.0
16	16	10	32	228	16.0	-2538061.0	28233.0	-782381.0
16	16	10	32	241	17.0	-2656514.0	32924.0	-782054.0
16	16	10	32	242	18.0	-2780795.0	37534.0	-782270.0
16	16	10	32	242	19.0	-2879917.0	41574.0	-781893.0
16	16	10	32	242	20.0	-2907798.0	45374.0	-782045.0
16	16	10	32	242	21.0	-2879304.0	49157.0	-781932.0
16	16	10	32	242	22.0	-2759415.0	51909.0	-781992.0
16	16	10	32	243	23.0	-2533829.0	55153.0	-781956.0
16	16	10	32	243	24.0	-2164669.0	58334.0	-781905.0
16	16	10	32	243	25.0	-1642288.0	60621.0	-782092.0
16	16	10	32	243	26.0	-988264.0	62724.0	-782006.0
16	16	10	32	244	27.0	-232854.0	65341.0	-782337.0
16	16	10	32	244	28.0	594038.0	68041.0	-782228.0
16	16	10	32	244	29.0	1441358.0	70170.0	-782549.0
16	16	10	32	245	31.0	3914821.0	75011.0	-782727.0
16	16	10	32	245	32.0	4775651.0	75864.0	-782605.0
16	16	10	32	245	33.0	5389371.0	75049.0	-782763.0
16	16	10	32	245	34.0	6016148.0	75010.0	-782814.0
16	16	10	32	246	35.0	6451371.0	75261.0	-782644.0
16	16	10	32	246	36.0	6800866.0	75499.0	-782849.0
16	16	10	32	246	37.0	7134230.0	76086.0	-782696.0
16	16	10	32	272	38.0	7437684.0	76828.0	-783049.0
16	16	10	32	290	39.0	7615444.0	78493.0	-782774.0
16	16	10	32	290	40.0	7576356.0	81787.0	-783165.0
16	16	10	32	290	41.0	7329803.0	84060.0	-782757.0
16	16	10	32	291	42.0	6938418.0	85471.0	-782987.0
16	16	10	32	291	43.0	6500870.0	86383.0	-782716.0
16	16	10	32	291	44.0	6091419.0	87168.0	-783042.0
16	16	10	32	292	45.0	5742232.0	87242.0	-782791.0
16	16	10	32	292	46.0	5492706.0	86943.0	-783048.0
16	16	10	32	292	47.0	5340686.0	86968.0	-782922.0
16	16	10	32	293	48.0	5286460.0	86987.0	-783066.0
16	16	10	32	293	49.0	5301314.0	85990.0	-782978.0
16	16	10	32	293	50.0	5351919.0	84674.0	-782876.0
16	16	10	32	294	51.0	5408710.0	83220.0	-782812.0
16	16	10	32	294	52.0	5451578.0	82084.0	-782618.0
16	16	10	32	294	54.0	5464623.0	78421.0	-782486.0
16	16	10	32	295	55.0	5418968.0	74329.0	-782627.0
16	16	10	32	295	56.0	5350579.0	69347.0	-782376.0
16	16	10	32	295	57.0	5241823.0	65307.0	-782596.0
16	16	10	32	296	58.0	5100413.0	62343.0	-782437.0
16	16	10	32	296	59.0	4943902.0	59053.0	-782596.0
16	16	10	32	318	60.0	4795758.0	55843.0	-782373.0
16	16	10	32	340	61.0	4664274.0	53871.0	-782556.0
16	16	10	32	341	62.0	4566013.0	54376.0	-782452.0
16	16	10	32	341	63.0	4493950.0	53718.0	-782621.0
16	16	10	32	341	64.0	4431174.0	52405.0	-782682.0
16	16	10	32	342	65.0	4358906.0	50681.0	-782543.0
16	16	10	32	342	66.0	4261480.0	48921.0	-782615.0
16	16	10	32	342	67.0	4131818.0	46499.0	-782301.0
16	16	10	32	342	68.0	3949870.0	43704.0	-782545.0
16	16	10	32	343	69.0	3727236.0	41116.0	-782176.0
16	16	10	32	343	70.0	3460448.0	38338.0	-782409.0
16	16	10	32	343	71.0	3140625.0	35614.0	-781984.0
16	16	10	32	344	72.0	2693657.0	31901.0	-782122.0
16	16	10	32	344	73.0	2080013.0	28454.0	-781871.0
16	16	10	32	344	74.0	1592400.0	25111.0	-782132.0
16	16	10	32	344	76.0	2150467.0	18611.0	-782202.0
16	16	10	32	345	77.0	2945216.0	14497.0	-781915.0
16	16	10	32	345	78.0	3625346.0	8702.0	-782186.0
16	16	10	32	346	79.0	4088231.0	4779.0	-781877.0
16	16	10	32	346	80.0	4341131.0	467.0	-782095.0
16	16	10	32	346	81.0	4412024.0	-3012.0	-781922.0
16	16	10	32	347	82.0	4389066.0	-5805.0	-782062.0
16	16	10	32	363	83.0	4347763.0	-8832.0	-782048.0
16	16	10	32	381	84.0	4226864.0	-10196.0	-782046.0
16	16	10	32	381	85.0	4013864.0	-8727.0	-782129.0
16	16	10	32	382	86.0	3739525.0	-8589.0	-781862.0
16	16	10	32	382	87.0	3407171.0	-9176.0	-781909.0
16	16	10	32	382	88.0	3009009.0	-10274.0	-781698.0
16	16	10	32	383	89.0	2549143.0	-11568.0	-781814.0
16	16	10	32	383	90.0	2075244.0	-12859.0	-781569.0
16	16	10	32	383	91.0	1648366.0	-13842.0	-781952.0
16	16	10	32	383	92.0	1301718.0	-15227.0	-781736.0
16	16	10	32	383	93.0	1066405.0	-17237.0	-781937.0
16	16	10	32	384	94.0	971044.0	-19306.0	-781751.0
16	16	10	32	384	95.0	993612.0	-20536.0	-781788.0
16	16	10	32	384	96.0	1048389.0	-21447.0	-781634.0
16	16	10	32	384	97.0	1089490.0	-22553.0	-781574.0
16	16	10	32	385	99.0	1076513.0	-24516.0	-781342.0
16	16	10	32	385	100.0	1061215.0	-27971.0	-781410.0
16	16	10	32	385	101.0	1084989.0	-30972.0	-781258.0
16	16	10	32	386	102.0	1158866.0	-32874.0	-781607.0
16	16	10	32	386	103.0	1264444.0	-34404.0	-781350.0
16	16	10	32	386	104.0	1386369.0	-35747.0	-781817.0
16	16	10	32	408	105.0	1495572.0	-37055.0	-781492.0
16	16	10	32	453	106.0	1564189.0	-37233.0	-781844.0
16	16	10	32	453	107.0	1587101.0	-34985.0	-781564.0
16	16	10	32	454	108.0	1568271.0	-34251.0	-781604.0
16	16	10	32	477	109.0	1508936.0	-34142.0	-781372.0
16	16	10	32	477	110.0	1418608.0	-34164.0	-781667.0
16	16	10	32	478	111.0	1314091.0	-33932.0	-781282.0
16	16	10	32	478	112.0	1210044.0	-33256.0	-781534.0
16	16	10	32	479	113.0	1116244.0	-33620.0	-781194.0
16	16	10	32	479	114.0	1043980.0	-33884.0	-781432.0
16	16	10	32	480	115.0	998776.0	-34332.0	-781259.0
16	16	10	32	480	116.0	982597.0	-34546.0	-781387.0
16	16	10	32	481	117.0	993556.0	-34889.0	-781307.0
16	16	10	32	481	118.0	1033601.0	-35176.0	-781192.0
16	16	10	32	482	119.0	1101630.0	-35747.0	-781137.0
16	16	10	32	482	121.0	1325349.0	-37330.0	-781253.0
16	16	10	32	483	144.0	1673289.0	-39116.0	-781359.0
16	16	10	32	483	145.0	1552468.0	-42185.0	-781023.0
16	16	10	32	484	146.0	1472903.0	-43992.0	-781121.0
16	16	10	32	484	147.0	1397644.0	-44973.0	-780732.0
16	16	10	32	484	148.0	1303610.0	-45566.0	-780869.0
16	16	10	32	485	149.0	1190707.0	-45293.0	-780744.0
16	16	10	32	513	150.0	1062977.0	-45297.0	-780703.0
16	16	10	32	514	151.0	931799.0	-44506.0	-780555.0
16	16	10	32	514	152.0	813494.0	-40797.0	-780626.0
16	16	10	32	515	153.0	717909.0	-37806.0	-780866.0
16	16	10	32	515	154.0	634113.0	-36067.0	-780657.0
16	16	10	32	516	155.0	566151.0	-34437.0	-780729.0
16	16	10	32	516	156.0	511458.0	-33544.0	-780482.0
16	16	10	32	516	157.0	514231.0	-32296.0	-780808.0
16	16	10	32	517	158.0	528871.0	-30858.0	-780617.0
16	16	10	32	517	159.0	516519.0	-30255.0	-780794.0
16	16	10	32	517	160.0	529053.0	-28983.0	-780525.0
16	16	10	32	518	161.0	514617.0	-27980.0	-780781.0
16	16	10	32	518	162.0	468418.0	-27422.0	-780557.0
16	16	10	32	519	163.0	427780.0	-26980.0	-780485.0
16	16	10	32	519	164.0	363793.0	-26009.0	-780383.0
16	16	10	32	519	166.0	183234.0	-24157.0	-780461.0
16	16	10	32	520	167.0	95073.0	-25266.0	-780160.0
16	16	10	32	520	168.0	10066.0	-27391.0	-780239.0
16	16	10	32	521	169.0	-20719.0	-28378.0	-779922.0
16	16	10	32	521	170.0	33903.0	-29302.0	-780309.0
16	16	10	32	542	171.0	148434.0	-29304.0	-780021.0
16	16	10	32	561	172.0	274574.0	-28889.0	-780162.0
16	16	10	32	562	173.0	367066.0	-28078.0	-779984.0
16	16	10	32	562	174.0	399205.0	-25683.0	-780193.0
16	16	10	32	562	175.0	357361.0	-23077.0	-779851.0
16	16	10	32	563	176.0	251227.0	-21242.0	-779998.0
16	16	10	32	563	177.0	62246.0	-19687.0	-779644.0
16	16	10	32	563	178.0	-183871.0	-18214.0	-779841.0
16	16	10	32	563	179.0	-450059.0	-17621.0	-779431.0
16	16	10	32	564	180.0	-714990.0	-16939.0	-779676.0
16	16	10	32	564	181.0	-965096.0	-16182.0	-779478.0
16	16	10	32	564	182.0	-1198963.0	-15393.0	-779562.0
16	16	10	32	564	183.0	-1407676.0	-14301.0	-779464.0
16	16	10	32	565	184.0	-1562911.0	-13705.0	-779387.0
16	16	10	32	565	185.0	-1662857.0	-12969.0	-779470.0
16	16	10	32	565	188.0	-1602913.0	-13234.0	-779361.0
16	16	10	32	565	189.0	-1466741.0	-13303.0	-779647.0
16	16	10	32	566	190.0	-1280442.0	-15862.0	-779357.0
16	16	10	32	566	191.0	-1065956.0	-17306.0	-779488.0
16	16	10	32	566	192.0	-838154.0	-18684.0	-779222.0
16	16	10	32	567	193.0	-602961.0	-19394.0	-779550.0
16	16	10	32	567	194.0	-354243.0	-19824.0	-779377.0
16	16	10	32	588	195.0	-90917.0	-20299.0	-779460.0
16	16	10	32	607	196.0	187398.0	-20211.0	-779392.0
16	16	10	32	607	197.0	473734.0	-17886.0	-779429.0
16	16	10	32	608	198.0	777708.0	-16057.0	-779497.0
16	16	10	32	608	199.0	1102064.0	-14822.0	-779420.0
16	16	10	32	609	200.0	1438309.0	-14082.0	-779498.0
16	16	10	32	609	201.0	1767223.0	-13257.0	-779246.0
16	16	10	32	609	202.0	2092902.0	-13031.0	-779524.0
16	16	10	32	610	203.0	2394229.0	-11829.0	-779196.0
16	16	10	32	610	204.0	2676754.0	-10715.0	-779390.0
16	16	10	32	610	205.0	2937257.0	-10298.0	-779356.0
16	16	10	32	611	206.0	3169288.0	-10227.0	-779599.0
16	16	10	32	611	207.0	3364481.0	-9928.0	-779293.0
16	16	10	32	611	208.0	3503077.0	-9569.0	-779635.0
16	16	10	32	612	209.0	3591339.0	-8896.0	-779373.0
16	16	10	32	612	211.0	3526494.0	-9071.0	-779389.0
16	16	10	32	612	212.0	3381812.0	-11874.0	-779611.0
16	16	10	32	613	213.0	3187244.0	-14988.0	-779401.0
16	16	10	32	613	214.0	2978487.0	-16973.0	-779652.0
16	16	10	32	613	215.0	2765663.0	-18622.0	-779631.0
16	16	10	32	614	216.0	2550121.0	-19716.0	-779666.0
16	16	10	32	633	217.0	2342508.0	-20285.0	-779571.0
16	16	10	32	649	218.0	2119176.0	-21086.0	-779454.0
16	16	10	32	650	219.0	1886855.0	-18953.0	-779436.0
16	16	10	32	650	220.0	1635283.0	-16562.0	-779369.0
16	16	10	32	650	221.0	1367299.0	-15420.0	-779629.0
16	16	10	32	651	222.0	1083696.0	-13956.0	-779481.0
16	16	10	32	651	223.0	788318.0	-12982.0	-779774.0
16	16	10	32	651	224.0	486716.0	-12683.0	-779456.0
16	16	10	32	651	225.0	185054.0	-12191.0	-779661.0
16	16	10	32	652	226.0	-92081.0	-11876.0	-779373.0
16	16	10	32	652	227.0	-334046.0	-11911.0	-779526.0
16	16	10	32	652	228.0	-537741.0	-11773.0	-779351.0
16	16	10	32	652	229.0	-695907.0	-11394.0	-779444.0
16	16	10	32	653	230.0	-803916.0	-11409.0	-779306.0
16	16	10	32	653	231.0	-875741.0	-11635.0	-779192.0
16	16	10	32	653	233.0	-866242.0	-10912.0	-778998.0
16	16	10	32	653	234.0	-775244.0	-11104.0	-779037.0
16	16	10	32	654	235.0	-627012.0	-12929.0	-778797.0
16	16	10	32	654	236.0	-434224.0	-14242.0	-779083.0
16	16	10	32	654	237.0	-256094.0	-15133.0	-778818.0
16	16	10	32	654	238.0	-87122.0	-16009.0	-778954.0
16	16	10	32	655	239.0	63114.0	-16547.0	-778846.0
16	16	10	32	677	240.0	220363.0	-16932.0	-779004.0
16	16	10	32	678	241.0	394129.0	-16378.0	-778732.0
16	16	10	32	691	242.0	568643.0	-13294.0	-779121.0
16	16	10	32	691	243.0	731016.0	-10966.0	-778786.0
16	16	10	32	692	244.0	874941.0	-9749.0	-779126.0
16	16	10	32	692	245.0	1013514.0	-8469.0	-778875.0
16	16	10	32	692	246.0	1142458.0	-8051.0	-779101.0
16	16	10	32	692	247.0	1276651.0	-7307.0	-778912.0
16	16	10	32	693	248.0	1416183.0	-6909.0	-779027.0
16	16	10	32	693	249.0	1571928.0	-6429.0	-778834.0
16	16	10	32	693	250.0	1745840.0	-5784.0	-778982.0
16	16	10	32	694	251.0	1921296.0	-4742.0	-778994.0
16	16	10	32	694	252.0	2080098.0	-3778.0	-778976.0
16	16	10	32	694	253.0	2198471.0	-3044.0	-779094.0
16	16	10	32	695	254.0	2280188.0	-2768.0	-778915.0
16	16	10	32	695	0.0	2247124.0	-1752.0	-778714.0
16	16	10	32	695	1.0	2112993.0	-3822.0	-778879.0
16	16	10	32	696	2.0	1915281.0	-6085.0	-778574.0
16	16	10	32	696	3.0	1664881.0	-7677.0	-778716.0
16	16	10	32	696	4.0	1399047.0	-8328.0	-778394.0
16	16	10	32	696	5.0	1142592.0	-8376.0	-778566.0
16	16	10	32	724	6.0	936984.0	-8861.0	-778383.0
16	16	10	32	724	7.0	780536.0	-8347.0	-778497.0
16	16	10	32	725	8.0	645205.0	-5892.0	-778397.0
16	16	10	32	726	9.0	529847.0	-3904.0	-778300.0
16	16	10	32	741	10.0	407623.0	-2599.0	-778271.0
16	16	10	32	742	11.0	279809.0	-1947.0	-778153.0
16	16	10	32	742	12.0	136351.0	-1534.0	-778264.0
16	16	10	32	742	13.0	-15306.0	-395.0	-778057.0
16	16	10	32	743	14.0	-152216.0	335.0	-778269.0
16	16	10	32	743	15.0	-266899.0	734.0	-777994.0
16	16	10	32	743	16.0	-352789.0	939.0	-778304.0
16	16	10	32	744	17.0	-411481.0	1883.0	-778003.0
16	16	10	32	744	18.0	-449983.0	2892.0	-778249.0
16	16	10	32	744	19.0	-468039.0	3363.0	-777882.0
16	16	10	32	744	20.0	-465512.0	3669.0	-778169.0
16	16	10	32	745	22.0	-442282.0	3978.0	-778031.0
16	16	10	32	745	23.0	-437717.0	3679.0	-777924.0
16	16	10	32	746	24.0	-451836.0	1597.0	-778017.0
16	16	10	32	746	25.0	-477745.0	268.0	-778171.0
16	16	10	32	747	26.0	-514624.0	-914.0	-778102.0
16	16	10	32	747	27.0	-562584.0	-1736.0	-778379.0
16	16	10	32	747	28.0	-630008.0	-1894.0	-778157.0
16	16	10	32	768	29.0	-709877.0	-2384.0	-778309.0
16	16	10	32	792	30.0	-800979.0	-2753.0	-778022.0
16	16	10	32	793	31.0	-902028.0	116.0	-778300.0
16	16	10	32	793	32.0	-1020574.0	2123.0	-777964.0
16	16	10	32	793	33.0	-1154962.0	3502.0	-778028.0
16	16	10	32	794	34.0	-1309743.0	5036.0	-777671.0
16	16	10	32	794	35.0	-1487223.0	6183.0	-777803.0
16	16	10	32	794	36.0	-1701393.0	6506.0	-777633.0
16	16	10	32	795	37.0	-1933440.0	7118.0	-777689.0
16	16	10	32	795	38.0	-2147958.0	7721.0	-777712.0
16	16	10	32	796	39.0	-2324047.0	8427.0	-777472.0
16	16	10	32	796	40.0	-2445374.0	8818.0	-777552.0
16	16	10	32	797	41.0	-2504694.0	8781.0	-777571.0
16	16	10	32	797	42.0	-2492794.0	9202.0	-777689.0
16	16	10	32	797	43.0	-2409399.0	9144.0	-777985.0
16	16	10	32	798	45.0	-2067916.0	10139.0	-777943.0
16	16	10	32	798	46.0	-1827907.0	8293.0	-777979.0
16	16	10	32	798	47.0	-1566833.0	5934.0	-778024.0
16	16	10	32	799	48.0	-1313518.0	5263.0	-778184.0
16	16	10	32	799	49.0	-1087400.0	4753.0	-778057.0
16	16	10	32	799	50.0	-915259.0	4445.0	-778161.0
16	16	10	32	813	51.0	-801834.0	4325.0	-777900.0
16	16	10	32	813	52.0	-738577.0	4535.0	-778141.0
16	16	10	32	814	53.0	-725161.0	6035.0	-777910.0
16	16	10	32	815	54.0	-764092.0	7552.0	-778245.0
16	16	10	32	815	55.0	-837715.0	8241.0	-778071.0
16	16	10	32	815	56.0	-923937.0	9568.0	-778467.0
16	16	10	32	816	57.0	-1019432.0	10354.0	-778397.0
16	16	10	32	816	58.0	-1108396.0	10667.0	-778515.0
16	16	10	32	858	59.0	-1198262.0	11204.0	-778520.0
16	16	10	32	859	60.0	-1302628.0	11194.0	-778527.0
16	16	10	32	859	61.0	-1436504.0	11254.0	-778634.0
16	16	10	32	860	62.0	-1578390.0	11514.0	-778561.0
16	16	10	32	860	63.0	-1711984.0	11611.0	-778829.0
16	16	10	32	877	64.0	-1824316.0	11531.0	-778532.0
16	16	10	32	877	65.0	-1901723.0	11864.0	-778762.0
16	16	10	32	878	67.0	-1916999.0	11991.0	-778849.0
16	16	10	32	878	68.0	-1836428.0	11284.0	-778517.0
16	16	10	32	879	69.0	-1715843.0	8756.0	-778725.0
16	16	10	32	879	70.0	-1549101.0	7392.0	-778676.0
16	16	10	32	880	71.0	-1338471.0	7726.0	-778915.0
16	16	10	32	881	72.0	-1089171.0	9186.0	-778548.0
16	16	10	32	881	73.0	-811290.0	9863.0	-778664.0
16	16	10	32	882	74.0	-534596.0	10191.0	-778380.0
16	16	10	32	882	90.0	3110744.0	13427.0	-779313.0
16	16	10	32	883	91.0	3867034.0	10849.0	-779361.0
16	16	10	32	883	92.0	4249379.0	7970.0	-779328.0
16	16	10	32	884	93.0	4187064.0	6588.0	-779373.0
16	16	10	32	884	94.0	3749691.0	5451.0	-779223.0
16	16	10	32	885	95.0	3107001.0	5064.0	-779364.0
16	16	10	32	911	96.0	2243734.0	4340.0	-779035.0
16	16	10	32	912	97.0	1081028.0	3957.0	-779129.0
16	16	10	32	912	98.0	-235309.0	6258.0	-778744.0
16	16	10	32	913	99.0	-1433419.0	7973.0	-778889.0
16	16	10	32	913	100.0	-2265393.0	8604.0	-778348.0
16	16	10	32	913	101.0	-2619859.0	9431.0	-778651.0
16	16	10	32	914	102.0	-2553441.0	10930.0	-778320.0
16	16	10	32	914	103.0	-2240224.0	11465.0	-778595.0
16	16	10	32	915	104.0	-1808159.0	11768.0	-778587.0
16	16	10	32	915	105.0	-1360831.0	11611.0	-778926.0
16	16	10	32	916	106.0	-969614.0	11881.0	-778695.0
16	16	10	32	916	107.0	-687514.0	12549.0	-779089.0
16	16	10	32	916	108.0	-513286.0	12109.0	-778896.0
16	16	10	32	917	109.0	-402176.0	12453.0	-779119.0
16	16	10	32	934	110.0	-315562.0	12094.0	-778946.0
16	16	10	32	935	112.0	-274599.0	11768.0	-778945.0
16	16	10	32	935	113.0	-175604.0	10778.0	-779041.0
16	16	10	32	935	114.0	-79160.0	8339.0	-779099.0
16	16	10	32	936	115.0	-23571.0	6575.0	-778919.0
16	16	10	32	936	116.0	147267.0	5284.0	-779171.0
16	16	10	32	936	117.0	322476.0	4236.0	-778979.0
16	16	10	32	937	118.0	361625.0	3513.0	-779176.0
16	16	10	32	953	119.0	365129.0	3129.0	-778962.0
16	16	10	32	954	120.0	341014.0	4175.0	-779291.0
16	16	10	32	954	121.0	323349.0	7073.0	-779120.0
16	16	10	32	954	122.0	363478.0	8638.0	-779345.0
16	16	10	32	955	123.0	400030.0	9861.0	-779291.0
16	16	10	32	955	124.0	419043.0	10692.0	-779464.0
16	16	10	32	956	125.0	365218.0	11033.0	-779535.0
16	16	10	32	956	126.0	332916.0	11426.0	-779458.0
16	16	10	32	956	127.0	320307.0	11251.0	-779499.0
16	16	10	32	956	128.0	331324.0	11209.0	-779318.0
16	16	10	32	974	129.0	381762.0	11583.0	-779592.0
16	16	10	32	974	130.0	447956.0	11900.0	-779259.0
16	16	10	32	975	131.0	564048.0	12398.0	-779560.0
16	16	10	32	975	132.0	740718.0	12520.0	-779133.0
16	16	10	32	975	133.0	965275.0	12371.0	-779398.0
16	16	10	32	976	135.0	1421663.0	12368.0	-779251.0
16	16	10	32	976	136.0	1717605.0	9928.0	-779101.0
16	16	10	32	976	137.0	1685353.0	7343.0	-779277.0
16	16	10	32	977	138.0	1485183.0	5696.0	-778896.0
16	16	10	32	977	139.0	1152376.0	4536.0	-779205.0
16	16	10	32	977	140.0	727429.0	3638.0	-778895.0
16	16	10	32	994	141.0	262555.0	3033.0	-779043.0
16	16	10	32	994	142.0	-190546.0	3088.0	-778847.0
16	16	10	32	995	143.0	-610956.0	5344.0	-778837.0
16	16	10	32	995	144.0	-997447.0	6743.0	-778540.0
16	16	10	32	995	145.0	-1318631.0	7306.0	-778692.0
16	16	10	33	12	146.0	-1595986.0	8755.0	-778817.0
16	16	10	33	13	147.0	-1804551.0	9838.0	-778661.0
16	16	10	33	13	148.0	-1916477.0	10459.0	-778811.0
16	16	10	33	13	149.0	-1970614.0	10946.0	-778557.0
16	16	10	33	13	150.0	-1972738.0	11844.0	-778648.0
16	16	10	33	14	151.0	-1883455.0	12544.0	-778433.0
16	16	10	33	14	152.0	-1732492.0	13730.0	-778690.0
16	16	10	33	14	153.0	-1495637.0	14523.0	-778487.0
16	16	10	33	14	154.0	-924468.0	15576.0	-778856.0
16	16	10	33	14	155.0	218559.0	16713.0	-778876.0
16	16	10	33	15	157.0	638473.0	18699.0	-778796.0
16	16	10	33	15	158.0	393799.0	18750.0	-778726.0
16	16	10	33	15	159.0	-90088.0	18227.0	-778596.0
16	16	10	33	16	160.0	-622157.0	18394.0	-778531.0
16	16	10	33	16	161.0	-1100562.0	19580.0	-778579.0
16	16	10	33	17	162.0	-1570699.0	21288.0	-778390.0
16	16	10	33	17	163.0	-1921121.0	23184.0	-778526.0
16	16	10	33	38	164.0	-2151593.0	25206.0	-778107.0
16	16	10	33	82	165.0	-2292384.0	27978.0	-778431.0
16	16	10	33	130	166.0	-2335739.0	32396.0	-778047.0
16	16	10	33	145	167.0	-2276277.0	36842.0	-778436.0
16	16	10	33	146	168.0	-2144741.0	40971.0	-778129.0
16	16	10	33	147	169.0	-1948470.0	44552.0	-778405.0
16	16	10	33	147	170.0	-1826075.0	47927.0	-778414.0
16	16	10	33	148	171.0	-1700484.0	50646.0	-778720.0
16	16	10	33	149	172.0	-1607107.0	53310.0	-778389.0
16	16	10	33	149	173.0	-1527796.0	56556.0	-778572.0
16	16	10	33	150	174.0	-1436289.0	59319.0	-778232.0
16	16	10	33	150	175.0	-1275519.0	61621.0	-778504.0
16	16	10	33	151	176.0	-1027551.0	64691.0	-778341.0
16	16	10	33	152	177.0	-743938.0	67143.0	-778467.0
16	16	10	33	152	178.0	-411163.0	68928.0	-778362.0
16	16	10	33	153	180.0	346288.0	73395.0	-778305.0
16	16	10	33	153	202.0	-3592071.0	82978.0	-778027.0
16	16	10	33	154	225.0	-1051884.0	16779.0	-779207.0
16	16	10	33	154	226.0	-1469260.0	11084.0	-779084.0
16	16	10	33	155	227.0	-1181782.0	6777.0	-779114.0
16	16	10	33	155	228.0	-452820.0	3033.0	-778922.0
16	16	10	33	156	229.0	302460.0	-860.0	-779112.0
16	16	10	33	156	230.0	845324.0	-4092.0	-778916.0
16	16	10	33	177	231.0	1154904.0	-7219.0	-779367.0
16	16	10	33	178	232.0	1339131.0	-9137.0	-779036.0
16	16	10	33	178	233.0	1422926.0	-8983.0	-779192.0
16	16	10	33	179	234.0	1515954.0	-9408.0	-779038.0
16	16	10	33	179	235.0	1561917.0	-10477.0	-779278.0
16	16	10	33	180	236.0	1530229.0	-11991.0	-778975.0
16	16	10	33	180	237.0	1367749.0	-13187.0	-779266.0
16	16	10	33	181	238.0	1086049.0	-14029.0	-778926.0
16	16	10	33	181	239.0	672774.0	-15609.0	-779167.0
16	16	10	33	199	240.0	197785.0	-17480.0	-778845.0
16	16	10	33	199	241.0	-288915.0	-18717.0	-779171.0
16	16	10	33	199	242.0	-774693.0	-20006.0	-778938.0
16	16	10	33	200	243.0	-1270013.0	-21768.0	-778961.0
16	16	10	33	200	244.0	-1777399.0	-23662.0	-778759.0
16	16	10	33	200	245.0	-2210861.0	-24605.0	-778710.0
16	16	10	33	200	247.0	-2587209.0	-26047.0	-778623.0
16	16	10	33	201	248.0	-2436254.0	-28630.0	-778954.0
16	16	10	33	201	249.0	-2266635.0	-31946.0	-778811.0
16	16	10	33	201	250.0	-2133481.0	-34594.0	-779047.0
16	16	10	33	201	251.0	-2051505.0	-36656.0	-778904.0
16	16	10	33	202	252.0	-1960228.0	-38384.0	-779251.0
16	16	10	33	218	253.0	-1853222.0	-39986.0	-779015.0
16	16	10	33	218	254.0	-1701072.0	-40690.0	-779356.0
16	16	10	33	219	255.0	-1506118.0	-39539.0	-779156.0
16	16	10	33	236	0.0	-1304737.0	-38060.0	-779241.0
16	16	10	33	236	1.0	-1125139.0	-37743.0	-779046.0
16	16	10	33	237	2.0	-991072.0	-37242.0	-779257.0
16	16	10	33	237	3.0	-875001.0	-36932.0	-779316.0
16	16	10	33	238	4.0	-762146.0	-35988.0	-779254.0
16	16	10	33	238	5.0	-632039.0	-35494.0	-779586.0
16	16	10	33	238	6.0	-451279.0	-35574.0	-779319.0
16	16	10	33	239	7.0	-222269.0	-36333.0	-779546.0
16	16	10	33	239	8.0	-2590.0	-36650.0	-779342.0
16	16	10	33	240	9.0	198558.0	-36568.0	-779437.0
16	16	10	33	240	10.0	393543.0	-36571.0	-779424.0
16	16	10	33	240	11.0	482404.0	-37067.0	-779545.0
16	16	10	33	263	14.0	443938.0	-38619.0	-779506.0
16	16	10	33	263	15.0	329043.0	-41227.0	-779873.0
16	16	10	33	282	16.0	158651.0	-43187.0	-779577.0
16	16	10	33	282	17.0	-9129.0	-44516.0	-779814.0
16	16	10	33	283	18.0	-155792.0	-45291.0	-779497.0
16	16	10	33	283	19.0	-274359.0	-45591.0	-779698.0
16	16	10	33	283	20.0	-395352.0	-43570.0	-779460.0
16	16	10	33	283	21.0	-498151.0	-42332.0	-779486.0
16	16	10	33	284	22.0	-550784.0	-41851.0	-779333.0
16	16	10	33	284	23.0	-502459.0	-41719.0	-779229.0
16	16	10	33	284	24.0	-405953.0	-41359.0	-779176.0
16	16	10	33	285	25.0	-240315.0	-41042.0	-779055.0
16	16	10	33	285	26.0	-32408.0	-41091.0	-779189.0
16	16	10	33	285	27.0	234173.0	-41082.0	-779147.0
16	16	10	33	286	28.0	627308.0	-40751.0	-779256.0
16	16	10	33	286	36.0	1295349.0	-38322.0	-779267.0
16	16	10	33	286	37.0	1218024.0	-39817.0	-779125.0
16	16	10	33	287	38.0	1018634.0	-41903.0	-779106.0
16	16	10	33	287	39.0	661805.0	-42799.0	-779139.0
16	16	10	33	287	40.0	74405.0	-43386.0	-778938.0
16	16	10	33	287	41.0	-1171003.0	-43570.0	-778963.0
16	16	10	33	308	42.0	-1484602.0	-43660.0	-779107.0
16	16	10	33	308	43.0	-1099066.0	-43744.0	-779251.0
16	16	10	33	309	44.0	-780877.0	-41626.0	-779214.0
16	16	10	33	325	45.0	-123129.0	-39377.0	-779337.0
16	16	10	33	325	46.0	486103.0	-37276.0	-779257.0
16	16	10	33	326	47.0	1409191.0	-35487.0	-779537.0
16	16	10	33	326	48.0	1897726.0	-33882.0	-779286.0
16	16	10	33	327	49.0	1899236.0	-32333.0	-779477.0
16	16	10	33	327	50.0	1888955.0	-30394.0	-779191.0
16	16	10	33	327	51.0	2195436.0	-29500.0	-779401.0
16	16	10	33	328	52.0	2466507.0	-27936.0	-779190.0
16	16	10	33	328	53.0	2553783.0	-26907.0	-779427.0
16	16	10	33	328	54.0	2515378.0	-26197.0	-779274.0
16	16	10	33	329	55.0	2119945.0	-25111.0	-779269.0
16	16	10	33	329	56.0	1633214.0	-24469.0	-779227.0
16	16	10	33	330	58.0	653275.0	-24452.0	-779079.0
16	16	10	33	330	59.0	157451.0	-23963.0	-779004.0
16	16	10	33	330	60.0	-125813.0	-26512.0	-779177.0
16	16	10	33	331	61.0	-252225.0	-27446.0	-778891.0
16	16	10	33	331	62.0	-523594.0	-28027.0	-779077.0
16	16	10	33	331	63.0	-765014.0	-28469.0	-778744.0
16	16	10	33	332	64.0	-1118911.0	-28634.0	-779032.0
16	16	10	33	353	65.0	-1457424.0	-28710.0	-778688.0
16	16	10	33	353	66.0	-1670792.0	-27817.0	-779004.0
16	16	10	33	354	67.0	-2146932.0	-24601.0	-778631.0
16	16	10	33	354	68.0	-3578176.0	-22476.0	-778475.0
16	16	10	33	355	69.0	-6589089.0	-21227.0	-777916.0
16	16	10	33	355	70.0	-8388608.0	-19474.0	-777490.0
16	16	10	33	364	71.0	-8388608.0	-17435.0	-777442.0
16	16	10	33	365	72.0	-8388608.0	-16456.0	-777573.0
16	16	10	33	365	73.0	-8388608.0	-15989.0	-777573.0
16	16	10	33	365	74.0	-8388608.0	-15246.0	-777929.0
16	16	10	33	366	75.0	-8102459.0	-15227.0	-777921.0
16	16	10	33	366	76.0	-6894058.0	-14480.0	-778131.0
16	16	10	33	367	77.0	-5315303.0	-13723.0	-778349.0
16	16	10	33	367	78.0	-3037688.0	-13878.0	-778520.0
16	16	10	33	382	79.0	-426887.0	-13751.0	-778652.0
16	16	10	33	383	81.0	3604386.0	-13524.0	-778906.0
16	16	10	33	383	82.0	5152386.0	-15746.0	-778736.0
16	16	10	33	383	83.0	6009317.0	-18719.0	-778895.0
16	16	10	33	384	84.0	6348397.0	-20087.0	-778614.0
16	16	10	33	384	85.0	6294469.0	-20980.0	-778864.0
16	16	10	33	384	86.0	5756523.0	-21741.0	-778647.0
16	16	10	33	401	87.0	4947076.0	-21906.0	-778784.0
16	16	10	33	401	88.0	3955514.0	-22201.0	-778632.0
16	16	10	33	401	89.0	2762770.0	-19845.0	-778738.0
16	16	10	33	402	90.0	1868364.0	-17434.0	-778636.0
16	16	10	33	402	91.0	1346255.0	-16101.0	-778624.0
16	16	10	33	402	92.0	1132601.0	-15466.0	-778634.0
16	16	10	33	403	93.0	1135686.0	-14785.0	-778526.0
16	16	10	33	419	94.0	1271106.0	-14791.0	-778643.0
16	16	10	33	419	95.0	1427325.0	-14625.0	-778527.0
16	16	10	33	420	96.0	1513078.0	-13762.0	-778839.0
16	16	10	33	420	97.0	1469898.0	-12769.0	-778546.0
16	16	10	33	420	98.0	1242136.0	-13066.0	-778901.0
16	16	10	33	421	99.0	818316.0	-13316.0	-778428.0
16	16	10	33	421	100.0	281274.0	-12960.0	-778747.0
16	16	10	33	421	101.0	-317701.0	-13839.0	-778442.0
16	16	10	33	421	103.0	-1449282.0	-14081.0	-778216.0
16	16	10	33	422	104.0	-1877525.0	-14849.0	-778452.0
16	16	10	33	422	105.0	-2114391.0	-17168.0	-778119.0
16	16	10	33	422	106.0	-2127564.0	-18329.0	-778369.0
16	16	10	33	422	107.0	-1937657.0	-19569.0	-778262.0
16	16	10	33	423	108.0	-1667443.0	-20587.0	-778625.0
16	16	10	33	423	109.0	-1358292.0	-21369.0	-778685.0
16	16	10	33	442	110.0	-1016453.0	-21734.0	-778823.0
16	16	10	33	442	111.0	-725213.0	-20986.0	-778977.0
16	16	10	33	443	112.0	-508011.0	-18519.0	-778933.0
16	16	10	33	459	113.0	-393916.0	-17222.0	-779104.0
16	16	10	33	459	114.0	-378273.0	-16141.0	-778931.0
16	16	10	33	460	115.0	-471995.0	-15851.0	-779187.0
16	16	10	33	460	116.0	-640903.0	-15461.0	-778984.0
16	16	10	33	460	117.0	-833559.0	-14737.0	-779239.0
16	16	10	33	461	118.0	-1026441.0	-14278.0	-778987.0
16	16	10	33	461	119.0	-1174661.0	-13921.0	-779179.0
16	16	10	33	461	120.0	-1285423.0	-13414.0	-778956.0
16	16	10	33	462	121.0	-1329611.0	-12694.0	-778942.0
16	16	10	33	462	122.0	-1323242.0	-12144.0	-778905.0
16	16	10	33	462	123.0	-1275795.0	-12758.0	-779001.0
16	16	10	33	462	124.0	-1170662.0	-12581.0	-779114.0
16	16	10	33	463	126.0	-866067.0	-12254.0	-779183.0
16	16	10	33	463	127.0	-659522.0	-14117.0	-778904.0
16	16	10	33	463	128.0	-413036.0	-15876.0	-779187.0
16	16	10	33	464	129.0	-159408.0	-16784.0	-778802.0
16	16	10	33	464	130.0	79523.0	-17186.0	-779155.0
16	16	10	33	464	131.0	352242.0	-17886.0	-778971.0
16	16	10	33	487	132.0	656474.0	-18626.0	-779126.0
16	16	10	33	510	133.0	997481.0	-18549.0	-779040.0
16	16	10	33	511	134.0	1341560.0	-16102.0	-779437.0
16	16	10	33	511	135.0	1656636.0	-13896.0	-779269.0
16	16	10	33	512	136.0	1949161.0	-12078.0	-779716.0
16	16	10	33	512	137.0	2209459.0	-11360.0	-779408.0
16	16	10	33	513	138.0	2455339.0	-9671.0	-779634.0
16	16	10	33	513	139.0	2671219.0	-8456.0	-779385.0
16	16	10	33	514	140.0	2913575.0	-7508.0	-779629.0
16	16	10	33	514	141.0	3200926.0	-5750.0	-779457.0
16	16	10	33	514	142.0	3536453.0	-4854.0	-779667.0
16	16	10	33	515	143.0	3917033.0	-4173.0	-779583.0
16	16	10	33	515	144.0	4274146.0	-4219.0	-779467.0
16	16	10	33	516	145.0	4616960.0	-4363.0	-779522.0
16	16	10	33	516	146.0	4898270.0	-4375.0	-779532.0
16	16	10	33	517	148.0	5182556.0	-3849.0	-779564.0
16	16	10	33	517	149.0	5226653.0	-4587.0	-779764.0
16	16	10	33	518	150.0	5292751.0	-7351.0	-779501.0
16	16	10	33	518	151.0	5405215.0	-9234.0	-779739.0
16	16	10	33	519	152.0	5586658.0	-10383.0	-779557.0
16	16	10	33	519	153.0	5702836.0	-11244.0	-779669.0
16	16	10	33	520	154.0	5414764.0	-11333.0	-779495.0
16	16	10	33	534	155.0	4879345.0	-11902.0	-779531.0
16	16	10	33	535	156.0	4431519.0	-11137.0	-779361.0
16	16	10	33	535	157.0	4136251.0	-7534.0	-779317.0
16	16	10	33	578	158.0	4013062.0	-5023.0	-779316.0
16	16	10	33	578	159.0	4120855.0	-3446.0	-779105.0
16	16	10	33	579	160.0	4375828.0	-1898.0	-779336.0
16	16	10	33	596	161.0	4653118.0	-1496.0	-779396.0
16	16	10	33	596	162.0	4875908.0	-562.0	-779476.0
16	16	10	33	597	163.0	4975575.0	66.0	-779209.0
16	16	10	33	598	164.0	4926364.0	516.0	-779509.0
16	16	10	33	598	165.0	4691343.0	1349.0	-779300.0
16	16	10	33	599	166.0	4300242.0	2543.0	-779628.0
16	16	10	33	599	167.0	3765799.0	3709.0	-779263.0
16	16	10	33	600	168.0	3121738.0	4008.0	-779468.0
16	16	10	33	600	169.0	2419761.0	4812.0	-779152.0
16	16	10	33	601	171.0	973090.0	3618.0	-779066.0
16	16	10	33	602	172.0	364678.0	1855.0	-779195.0
16	16	10	33	602	173.0	-104753.0	1556.0	-779001.0
16	16	10	33	603	193.0	-973361.0	7818.0	-779063.0
16	16	10	33	603	194.0	-1205024.0	7030.0	-779001.0
16	16	10	33	604	195.0	-1387241.0	4413.0	-778664.0
16	16	10	33	604	196.0	-1562557.0	3362.0	-778596.0
16	16	10	33	605	197.0	-1724638.0	2267.0	-778379.0
16	16	10	33	606	198.0	-1828348.0	1914.0	-778692.0
16	16	10	33	606	199.0	-1857014.0	1673.0	-778462.0
16	16	10	33	627	200.0	-1769309.0	1063.0	-778702.0
16	16	10	33	628	201.0	-1660407.0	1549.0	-778477.0
16	16	10	33	629	202.0	-1496662.0	4231.0	-778901.0
16	16	10	33	657	203.0	-1375187.0	5541.0	-778787.0
16	16	10	33	658	204.0	-1295539.0	6741.0	-778942.0
16	16	10	33	659	205.0	-1171162.0	7799.0	-778853.0
16	16	10	33	660	206.0	-1093783.0	8812.0	-779024.0
16	16	10	33	661	207.0	-996906.0	9711.0	-779042.0
16	16	10	33	662	208.0	-942837.0	9860.0	-779040.0
16	16	10	33	663	209.0	-895755.0	10783.0	-779146.0
16	16	10	33	664	210.0	-883659.0	11223.0	-778907.0
16	16	10	33	665	211.0	-925682.0	11161.0	-779051.0
16	16	10	33	666	212.0	-959503.0	11494.0	-778746.0
16	16	10	33	668	213.0	-991631.0	11876.0	-779007.0
16	16	10	33	669	214.0	-944005.0	11661.0	-778690.0
16	16	10	33	670	216.0	-685124.0	11485.0	-778772.0
16	16	10	33	672	217.0	-428567.0	9307.0	-778997.0
16	16	10	33	673	218.0	-122604.0	7034.0	-778790.0
16	16	10	33	674	219.0	224949.0	6242.0	-778949.0
16	16	10	33	675	220.0	552842.0	5446.0	-778926.0
16	16	10	33	675	221.0	955664.0	4554.0	-779150.0
16	16	10	33	676	222.0	1284091.0	3636.0	-778969.0
16	16	10	33	676	223.0	1504181.0	4003.0	-779441.0
16	16	10	33	677	224.0	1632398.0	7081.0	-779224.0
16	16	10	33	679	225.0	1648157.0	9341.0	-779526.0
16	16	10	33	679	226.0	1643443.0	10749.0	-779336.0
16	16	10	33	679	227.0	1648975.0	11474.0	-779424.0
16	16	10	33	680	228.0	1596027.0	12333.0	-779281.0
16	16	10	33	680	229.0	1479859.0	12846.0	-779281.0
16	16	10	33	680	230.0	1225007.0	13253.0	-779430.0
16	16	10	33	680	231.0	635535.0	13291.0	-779265.0
16	16	10	33	681	232.0	-500046.0	12617.0	-779320.0
16	16	10	33	681	233.0	-1954922.0	12821.0	-778960.0
16	16	10	33	681	234.0	-3282051.0	13054.0	-779026.0
16	16	10	33	681	235.0	-4184754.0	13403.0	-778731.0
16	16	10	33	682	236.0	-4576488.0	13670.0	-779101.0
16	16	10	33	682	238.0	-4118768.0	15131.0	-779224.0
16	16	10	33	682	239.0	-3604824.0	13832.0	-779188.0
16	16	10	33	682	240.0	-2937954.0	11038.0	-779199.0
16	16	10	33	682	241.0	-2279131.0	9716.0	-779147.0
16	16	10	33	683	242.0	-1686769.0	9085.0	-779069.0
16	16	10	33	683	243.0	-1218641.0	7858.0	-779093.0
16	16	10	33	683	244.0	-976892.0	6528.0	-778920.0
16	16	10	33	712	245.0	-1094887.0	6089.0	-779000.0
16	16	10	33	712	246.0	-1545885.0	6718.0	-778642.0
16	16	10	33	726	247.0	-2140448.0	8966.0	-778902.0
16	16	10	33	726	248.0	-2803994.0	10078.0	-778396.0
16	16	10	33	727	249.0	-3558979.0	11329.0	-778632.0
16	16	10	33	727	250.0	-4382374.0	12431.0	-778396.0
16	16	10	33	728	251.0	-5120919.0	14429.0	-778572.0
16	16	10	33	728	252.0	-5634008.0	15339.0	-778366.0
16	16	10	33	729	253.0	-5796556.0	15819.0	-778520.0
16	16	10	33	729	254.0	-5631733.0	16404.0	-778242.0
16	16	10	33	730	255.0	-5257992.0	16691.0	-778548.0
16	16	10	33	730	0.0	-4786247.0	16699.0	-778301.0
16	16	10	33	759	1.0	-4324078.0	16319.0	-778585.0
16	16	10	33	759	2.0	-3889771.0	16178.0	-778341.0
16	16	10	33	760	3.0	-3522579.0	15902.0	-778654.0
16	16	10	33	760	5.0	-2786227.0	15036.0	-778621.0
16	16	10	33	761	6.0	-2386776.0	12198.0	-778523.0
16	16	10	33	761	7.0	-1958592.0	9986.0	-778589.0
16	16	10	33	762	8.0	-1595978.0	8350.0	-778522.0
16	16	10	33	763	9.0	-1279607.0	7458.0	-778634.0
16	16	10	33	763	10.0	-1011802.0	9062.0	-778871.0
16	16	10	33	764	11.0	-826610.0	9840.0	-778851.0
16	16	10	33	764	12.0	-713861.0	10220.0	-779062.0
16	16	10	33	782	13.0	-714845.0	11039.0	-778837.0
16	16	10	33	783	14.0	-746187.0	11615.0	-779031.0
16	16	10	33	783	15.0	-771124.0	11788.0	-778760.0
16	16	10	33	783	16.0	-750967.0	11813.0	-779021.0
16	16	10	33	783	27.0	-885256.0	11971.0	-779181.0
16	16	10	33	784	28.0	-1059611.0	10699.0	-779175.0
16	16	10	33	784	29.0	-1214219.0	8288.0	-779397.0
16	16	10	33	784	30.0	-1321703.0	6373.0	-779124.0
16	16	10	33	784	31.0	-1399022.0	5283.0	-779330.0
16	16	10	33	785	32.0	-1469827.0	4142.0	-779022.0
16	16	10	33	785	33.0	-1539319.0	3243.0	-779303.0
16	16	10	33	804	34.0	-1639122.0	3024.0	-778982.0
16	16	10	33	804	35.0	-1735134.0	3778.0	-779085.0
16	16	10	33	805	36.0	-1879725.0	6344.0	-778779.0
16	16	10	33	805	37.0	-2055133.0	7620.0	-778887.0
16	16	10	33	805	38.0	-2146446.0	8483.0	-778706.0
16	16	10	33	805	39.0	-2157936.0	9469.0	-778748.0
16	16	10	33	827	40.0	-2143792.0	10245.0	-778782.0
16	16	10	33	828	41.0	-2125562.0	10358.0	-778711.0
16	16	10	33	828	42.0	-2105452.0	11081.0	-778842.0
16	16	10	33	828	43.0	-2068040.0	10996.0	-778808.0
16	16	10	33	828	44.0	-2025198.0	11314.0	-778994.0
16	16	10	33	829	45.0	-1933124.0	11759.0	-778791.0
16	16	10	33	829	46.0	-1839368.0	11871.0	-778990.0
16	16	10	33	829	47.0	-1770608.0	12244.0	-778754.0
16	16	10	33	829	48.0	-1675436.0	12205.0	-779102.0
16	16	10	33	830	50.0	-1562519.0	12988.0	-779172.0
16	16	10	33	830	51.0	-1551794.0	11596.0	-778887.0
16	16	10	33	830	52.0	-1577719.0	10063.0	-779127.0
16	16	10	33	830	53.0	-1618595.0	9111.0	-779140.0
16	16	10	33	831	54.0	-1653051.0	8829.0	-779086.0
16	16	10	33	831	55.0	-1630631.0	9006.0	-779141.0
16	16	10	33	852	56.0	-1579731.0	9458.0	-779052.0
16	16	10	33	853	57.0	-1992232.0	11448.0	-779091.0
16	16	10	33	853	58.0	-2013517.0	15516.0	-778781.0
16	16	10	33	854	59.0	-135261.0	19209.0	-779157.0
16	16	10	33	854	60.0	1391516.0	22714.0	-778954.0
16	16	10	33	855	61.0	2442202.0	26750.0	-779169.0
16	16	10	33	855	62.0	3105434.0	30442.0	-779072.0
16	16	10	33	856	63.0	3136016.0	33913.0	-779317.0
16	16	10	33	856	64.0	2532709.0	36714.0	-778983.0
16	16	10	33	857	65.0	1511031.0	39790.0	-779082.0
16	16	10	33	857	66.0	384812.0	42436.0	-778720.0
16	16	10	33	858	67.0	-493691.0	45417.0	-778912.0
16	16	10	33	858	68.0	-1053941.0	48043.0	-778506.0
16	16	10	33	859	69.0	-1292502.0	50529.0	-778685.0
16	16	10	33	859	70.0	-1301499.0	52953.0	-778519.0
16	16	10	33	860	72.0	-981347.0	57389.0	-778772.0
16	16	10	33	860	73.0	-816656.0	58602.0	-778854.0
16	16	10	33	861	74.0	-632080.0	58125.0	-778964.0
16	16	10	33	861	75.0	-425696.0	58876.0	-778896.0
16	16	10	33	862	76.0	-273325.0	59644.0	-779000.0
16	16	10	33	862	77.0	-143915.0	60803.0	-778882.0
16	16	10	33	892	78.0	-87234.0	62468.0	-779137.0
16	16	10	33	910	79.0	-22881.0	64278.0	-778887.0
16	16	10	33	911	80.0	77777.0	67380.0	-779122.0
16	16	10	33	911	81.0	301181.0	71208.0	-778826.0
16	16	10	33	911	82.0	552440.0	74477.0	-779083.0
16	16	10	33	912	83.0	839003.0	76660.0	-778771.0
16	16	10	33	912	84.0	1119113.0	78933.0	-779037.0
16	16	10	33	913	85.0	1320623.0	80721.0	-778916.0
16	16	10	33	913	86.0	1462482.0	82301.0	-779024.0
16	16	10	33	913	87.0	1584440.0	83735.0	-779031.0
16	16	10	33	914	88.0	1628321.0	84356.0	-778974.0
16	16	10	33	914	89.0	1631757.0	84911.0	-779069.0
16	16	10	33	914	90.0	1557972.0	85023.0	-778855.0
16	16	10	33	915	91.0	1426188.0	85619.0	-778942.0
16	16	10	33	915	92.0	1308503.0	85216.0	-778660.0
16	16	10	33	916	95.0	772453.0	83577.0	-778496.0
16	16	10	33	916	96.0	558033.0	80068.0	-778206.0
16	16	10	33	917	97.0	390771.0	76694.0	-778515.0
16	16	10	33	917	98.0	291418.0	74309.0	-778220.0
16	16	10	33	917	99.0	273326.0	71801.0	-778393.0
16	16	10	33	918	100.0	312570.0	69247.0	-778217.0
16	16	10	33	944	101.0	433715.0	66988.0	-778279.0
16	16	10	33	945	102.0	608129.0	65979.0	-778122.0
16	16	10	33	945	103.0	847141.0	66449.0	-778135.0
16	16	10	33	970	104.0	1157248.0	66017.0	-778145.0
16	16	10	33	971	105.0	1511321.0	65258.0	-778074.0
16	16	10	33	971	106.0	1909236.0	64315.0	-778136.0
16	16	10	33	971	107.0	2343017.0	62645.0	-778040.0
16	16	10	33	972	108.0	2808761.0	61344.0	-778352.0
16	16	10	33	972	109.0	3342154.0	59215.0	-778153.0
16	16	10	33	972	110.0	4006783.0	57102.0	-778549.0
16	16	10	33	994	111.0	4612229.0	54976.0	-778359.0
16	16	10	33	994	112.0	4986715.0	52156.0	-778506.0
16	16	10	33	995	113.0	5194303.0	48889.0	-778236.0
16	16	10	33	995	114.0	5290723.0	45873.0	-778399.0
16	16	10	33	995	115.0	5177806.0	42773.0	-778148.0
16	16	10	33	995	117.0	4673385.0	37129.0	-778074.0
16	16	10	33	995	118.0	4363592.0	32641.0	-778103.0
16	16	10	33	996	119.0	3591094.0	26996.0	-778210.0
16	16	10	33	996	120.0	2639942.0	22407.0	-777976.0
16	16	10	33	996	121.0	1674301.0	19134.0	-778186.0
16	16	10	33	996	122.0	744099.0	18258.0	-777802.0
16	16	10	33	997	123.0	368158.0	15859.0	-778001.0
16	16	10	33	997	124.0	683958.0	13199.0	-778196.0
16	16	10	33	997	125.0	1194393.0	11658.0	-778577.0
16	16	10	33	997	126.0	1575673.0	9916.0	-778427.0
16	16	10	33	998	139.0	297035.0	-15864.0	-778882.0
16	16	10	33	998	140.0	-20380.0	-17862.0	-779084.0
16	16	10	33	998	141.0	-270330.0	-22067.0	-778894.0
16	16	10	34	18	142.0	-393598.0	-25423.0	-779220.0
16	16	10	34	18	143.0	-396320.0	-27737.0	-778944.0
16	16	10	34	19	144.0	-289909.0	-29609.0	-779237.0
16	16	10	34	19	145.0	-72595.0	-31311.0	-778996.0
16	16	10	34	42	146.0	184780.0	-32698.0	-779344.0
16	16	10	34	43	147.0	473096.0	-33451.0	-779105.0
16	16	10	34	43	148.0	796926.0	-32105.0	-779089.0
16	16	10	34	43	149.0	1151623.0	-31361.0	-778964.0
16	16	10	34	43	150.0	1557858.0	-31572.0	-778993.0
16	16	10	34	44	151.0	1979181.0	-31361.0	-779132.0
16	16	10	34	44	152.0	2396909.0	-30849.0	-778872.0
16	16	10	34	44	153.0	2770454.0	-30625.0	-779067.0
16	16	10	34	44	154.0	3045754.0	-30442.0	-778823.0
16	16	10	34	45	155.0	3182462.0	-30359.0	-779078.0
16	16	10	34	45	156.0	3126856.0	-30208.0	-779076.0
16	16	10	34	45	157.0	2894677.0	-30492.0	-779303.0
16	16	10	34	45	158.0	2548540.0	-31024.0	-779129.0
16	16	10	34	46	159.0	2157564.0	-31531.0	-779467.0
16	16	10	34	46	160.0	1780707.0	-31713.0	-779207.0
16	16	10	34	46	162.0	1179463.0	-32554.0	-779071.0
16	16	10	34	47	163.0	964927.0	-34838.0	-779307.0
16	16	10	34	47	164.0	817736.0	-38134.0	-779174.0
16	16	10	34	47	165.0	747504.0	-39744.0	-779461.0
16	16	10	34	47	166.0	748717.0	-41448.0	-779434.0
16	16	10	34	48	167.0	805447.0	-42616.0	-779546.0
16	16	10	34	72	168.0	883836.0	-43486.0	-779661.0
16	16	10	34	93	169.0	948456.0	-43607.0	-779621.0
16	16	10	34	93	170.0	976041.0	-41967.0	-779753.0
16	16	10	34	93	171.0	959121.0	-40221.0	-779622.0
16	16	10	34	94	172.0	910131.0	-39979.0	-779747.0
16	16	10	34	94	173.0	828095.0	-39815.0	-779462.0
16	16	10	34	94	174.0	735324.0	-39254.0	-779799.0
16	16	10	34	94	175.0	620563.0	-38497.0	-779551.0
16	16	10	34	95	176.0	466961.0	-38328.0	-779912.0
16	16	10	34	95	177.0	291964.0	-37510.0	-779628.0
16	16	10	34	95	178.0	89761.0	-37020.0	-779852.0
16	16	10	34	95	179.0	-116830.0	-37427.0	-779519.0
16	16	10	34	96	180.0	-313494.0	-37191.0	-779687.0
16	16	10	34	96	181.0	-489992.0	-37184.0	-779619.0
16	16	10	34	96	182.0	-634652.0	-37282.0	-779664.0
16	16	10	34	96	184.0	-820451.0	-37164.0	-779623.0
16	16	10	34	97	185.0	-869471.0	-37147.0	-779742.0
16	16	10	34	97	186.0	-891520.0	-39506.0	-779617.0
16	16	10	34	97	187.0	-905336.0	-40896.0	-779574.0
16	16	10	34	97	188.0	-892379.0	-41966.0	-779385.0
16	16	10	34	98	189.0	-840982.0	-42738.0	-779399.0
16	16	10	34	98	190.0	-758559.0	-42833.0	-779339.0
16	16	10	34	118	191.0	-635886.0	-42465.0	-779604.0
16	16	10	34	118	192.0	-497274.0	-41828.0	-779318.0
16	16	10	34	118	193.0	-402023.0	-39228.0	-779577.0
16	16	10	34	142	194.0	-394779.0	-37018.0	-779262.0
16	16	10	34	142	195.0	-465433.0	-35193.0	-779451.0
16	16	10	34	142	196.0	-586022.0	-34513.0	-779239.0
16	16	10	34	143	197.0	-698622.0	-33479.0	-779492.0
16	16	10	34	143	198.0	-761391.0	-31998.0	-779312.0
16	16	10	34	143	199.0	-784379.0	-30736.0	-779354.0
16	16	10	34	143	200.0	-785588.0	-29387.0	-779314.0
16	16	10	34	144	201.0	-818457.0	-28217.0	-779240.0
16	16	10	34	144	202.0	-917140.0	-27261.0	-779349.0
16	16	10	34	144	203.0	-1073664.0	-26119.0	-779291.0
16	16	10	34	144	204.0	-1252809.0	-25028.0	-779446.0
16	16	10	34	145	205.0	-1419610.0	-24420.0	-779198.0
16	16	10	34	145	207.0	-1676132.0	-23003.0	-779079.0
16	16	10	34	145	208.0	-1794335.0	-24012.0	-779401.0
16	16	10	34	145	209.0	-1928277.0	-25757.0	-779029.0
16	16	10	34	146	210.0	-2080356.0	-26412.0	-779147.0
16	16	10	34	146	211.0	-2235686.0	-26814.0	-778809.0
16	16	10	34	146	212.0	-2380437.0	-27259.0	-778901.0
16	16	10	34	166	213.0	-2484714.0	-27271.0	-778797.0
16	16	10	34	166	214.0	-2541849.0	-26639.0	-778784.0
16	16	10	34	166	215.0	-2547360.0	-23799.0	-778811.0
16	16	10	34	167	216.0	-2489046.0	-21070.0	-778646.0
16	16	10	34	167	217.0	-2379566.0	-19951.0	-778935.0
16	16	10	34	167	218.0	-2212374.0	-17935.0	-778657.0
16	16	10	34	167	219.0	-2024020.0	-16413.0	-778829.0
16	16	10	34	168	220.0	-1825584.0	-14617.0	-778571.0
16	16	10	34	190	221.0	-1626393.0	-14004.0	-778902.0
16	16	10	34	190	222.0	-1421209.0	-12678.0	-778586.0
16	16	10	34	191	223.0	-1210971.0	-12206.0	-778783.0
16	16	10	34	191	224.0	-1025871.0	-12206.0	-778474.0
16	16	10	34	191	225.0	-870086.0	-11745.0	-778768.0
16	16	10	34	192	226.0	-737569.0	-11202.0	-778457.0
16	16	10	34	192	227.0	-601681.0	-10788.0	-778649.0
16	16	10	34	192	229.0	-400339.0	-10044.0	-778591.0
16	16	10	34	192	230.0	-418320.0	-10152.0	-778461.0
16	16	10	34	193	231.0	-118662.0	-12477.0	-778504.0
16	16	10	34	193	232.0	325351.0	-13785.0	-778777.0
16	16	10	34	193	233.0	560014.0	-15276.0	-778720.0
16	16	10	34	193	234.0	591562.0	-16363.0	-778962.0
16	16	10	34	194	235.0	465974.0	-16828.0	-778881.0
16	16	10	34	213	236.0	332824.0	-17348.0	-779186.0
16	16	10	34	214	237.0	180547.0	-17306.0	-778911.0
16	16	10	34	214	238.0	-26974.0	-15301.0	-779170.0
16	16	10	34	214	239.0	-259194.0	-13811.0	-778874.0
16	16	10	34	215	240.0	-512134.0	-12676.0	-779101.0
16	16	10	34	215	241.0	-788481.0	-12081.0	-778844.0
16	16	10	34	215	242.0	-1118617.0	-11982.0	-778952.0
16	16	10	34	216	243.0	-1485454.0	-11754.0	-778719.0
16	16	10	34	216	244.0	-1832195.0	-11165.0	-778511.0
16	16	10	34	216	245.0	-2100737.0	-10740.0	-778448.0
16	16	10	34	217	246.0	-2234303.0	-10766.0	-778296.0
16	16	10	34	217	247.0	-2211214.0	-11241.0	-778445.0
16	16	10	34	217	248.0	-2050736.0	-10996.0	-778164.0
16	16	10	34	217	249.0	-1813787.0	-10041.0	-778543.0
16	16	10	34	217	250.0	-1574991.0	-9807.0	-778230.0
16	16	10	34	218	252.0	-1221950.0	-10069.0	-778372.0
16	16	10	34	237	253.0	-1170461.0	-11971.0	-778635.0
16	16	10	34	238	254.0	-1201167.0	-13919.0	-778323.0
16	16	10	34	238	255.0	-1301387.0	-16027.0	-778603.0
16	16	10	34	238	0.0	-1461736.0	-17391.0	-778354.0
16	16	10	34	238	1.0	-1650857.0	-18222.0	-778692.0
16	16	10	34	298	2.0	-1834531.0	-19365.0	-778355.0
16	16	10	34	298	3.0	-2019285.0	-19473.0	-778497.0
16	16	10	34	299	4.0	-2204115.0	-17727.0	-778249.0
16	16	10	34	313	5.0	-2371459.0	-16062.0	-778363.0
16	16	10	34	314	6.0	-2529420.0	-14602.0	-778231.0
16	16	10	34	314	7.0	-2660006.0	-12879.0	-778291.0
16	16	10	34	315	8.0	-2768661.0	-12416.0	-778182.0
16	16	10	34	316	9.0	-2831063.0	-12094.0	-778060.0
16	16	10	34	316	10.0	-2830879.0	-12427.0	-778077.0
16	16	10	34	317	11.0	-2741512.0	-12447.0	-777951.0
16	16	10	34	317	12.0	-2566745.0	-12655.0	-777964.0
16	16	10	34	318	13.0	-2347729.0	-12705.0	-777795.0
16	16	10	34	318	14.0	-2099709.0	-12106.0	-777915.0
16	16	10	34	319	15.0	-1848067.0	-11905.0	-777737.0
16	16	10	34	319	16.0	-1597793.0	-12248.0	-778134.0
16	16	10	34	320	41.0	-383154.0	-7459.0	-778287.0
16	16	10	34	320	42.0	-237109.0	-9348.0	-778416.0
16	16	10	34	320	43.0	-88121.0	-11436.0	-778381.0
16	16	10	34	321	44.0	49379.0	-12146.0	-778482.0
16	16	10	34	322	45.0	197179.0	-12639.0	-778302.0
16	16	10	34	322	46.0	363528.0	-12470.0	-778622.0
16	16	10	34	354	47.0	492964.0	-12949.0	-778362.0
16	16	10	34	355	48.0	631912.0	-12471.0	-778794.0
16	16	10	34	355	49.0	762949.0	-9801.0	-778604.0
16	16	10	34	356	50.0	866866.0	-7731.0	-778853.0
16	16	10	34	356	51.0	977020.0	-5772.0	-778646.0
16	16	10	34	356	52.0	1123100.0	-4409.0	-778734.0
16	16	10	34	357	53.0	1349907.0	-3817.0	-778602.0
16	16	10	34	357	54.0	1677673.0	-3321.0	-778593.0
16	16	10	34	357	55.0	2087836.0	-1843.0	-778689.0
16	16	10	34	358	56.0	2538518.0	-896.0	-778539.0
16	16	10	34	358	57.0	2943934.0	149.0	-778809.0
16	16	10	34	358	58.0	3216568.0	1243.0	-778546.0
16	16	10	34	358	59.0	3275098.0	2306.0	-778731.0
16	16	10	34	359	60.0	3108569.0	2648.0	-778603.0
16	16	10	34	359	61.0	2725598.0	2686.0	-778644.0
16	16	10	34	359	63.0	1428239.0	2326.0	-778623.0
16	16	10	34	360	64.0	683379.0	1326.0	-778322.0
16	16	10	34	388	65.0	-20585.0	-1051.0	-778612.0
16	16	10	34	389	66.0	-627734.0	-2653.0	-778235.0
16	16	10	34	389	67.0	-1166330.0	-3769.0	-778415.0
16	16	10	34	410	68.0	-1589226.0	-4736.0	-778072.0
16	16	10	34	411	69.0	-1924113.0	-4869.0	-778347.0
16	16	10	34	411	70.0	-2113369.0	-2925.0	-778326.0
16	16	10	34	411	71.0	-2149459.0	-981.0	-778523.0
16	16	10	34	411	72.0	-2039932.0	597.0	-778616.0
16	16	10	34	412	73.0	-1784727.0	1572.0	-778679.0
16	16	10	34	412	74.0	-1439343.0	2104.0	-778853.0
16	16	10	34	412	75.0	-1060969.0	2635.0	-778797.0
16	16	10	34	413	76.0	-692222.0	2865.0	-778996.0
16	16	10	34	413	77.0	-355223.0	3092.0	-778821.0
16	16	10	34	413	78.0	-70507.0	3831.0	-779054.0
16	16	10	34	413	79.0	194234.0	4144.0	-778775.0
16	16	10	34	414	86.0	1607228.0	7199.0	-778798.0
16	16	10	34	414	87.0	1613623.0	5088.0	-778842.0
16	16	10	34	414	88.0	1547322.0	2220.0	-778621.0
16	16	10	34	414	89.0	1422280.0	616.0	-778786.0
16	16	10	34	415	90.0	1246936.0	-181.0	-778451.0
16	16	10	34	415	91.0	1050539.0	-916.0	-778522.0
16	16	10	34	435	92.0	855293.0	-1426.0	-778625.0
16	16	10	34	435	93.0	673178.0	-971.0	-778691.0
16	16	10	34	436	94.0	510091.0	2554.0	-778569.0
16	16	10	34	436	95.0	390123.0	4089.0	-778776.0
16	16	10	34	437	96.0	304468.0	5236.0	-778476.0
16	16	10	34	437	97.0	248974.0	6644.0	-778627.0
16	16	10	34	438	98.0	221228.0	7286.0	-778365.0
16	16	10	34	438	99.0	230578.0	8240.0	-778783.0
16	16	10	34	439	100.0	276723.0	8659.0	-778523.0
16	16	10	34	439	101.0	355147.0	8457.0	-778764.0
16	16	10	34	439	102.0	452163.0	9151.0	-778589.0
16	16	10	34	440	103.0	557932.0	9122.0	-778719.0
16	16	10	34	440	104.0	672558.0	9398.0	-778631.0
16	16	10	34	441	105.0	804205.0	10197.0	-778720.0
16	16	10	34	441	106.0	947646.0	10359.0	-778787.0
16	16	10	34	442	108.0	1210261.0	11091.0	-778784.0
16	16	10	34	459	109.0	1321869.0	10268.0	-778691.0
16	16	10	34	460	110.0	1409501.0	7177.0	-778933.0
16	16	10	34	460	111.0	1468820.0	5223.0	-778696.0
16	16	10	34	460	112.0	1493336.0	4644.0	-779096.0
16	16	10	34	461	113.0	1491929.0	4464.0	-778868.0
16	16	10	34	461	114.0	1484601.0	4438.0	-779226.0
16	16	10	34	484	115.0	1480899.0	3893.0	-778866.0
16	16	10	34	484	116.0	1494341.0	4701.0	-779043.0
16	16	10	34	484	117.0	1443466.0	7610.0	-778872.0
16	16	10	34	485	118.0	1087273.0	8872.0	-778852.0
16	16	10	34	485	119.0	299806.0	9913.0	-778709.0
16	16	10	34	485	120.0	-652882.0	9955.0	-778441.0
16	16	10	34	486	121.0	-1424549.0	10284.0	-778367.0
16	16	10	34	486	122.0	-1811011.0	10813.0	-778477.0
16	16	10	34	486	123.0	-1750627.0	11136.0	-778471.0
16	16	10	34	487	124.0	-1299084.0	11079.0	-778609.0
16	16	10	34	487	125.0	-584704.0	11743.0	-778727.0
16	16	10	34	487	126.0	293696.0	12543.0	-778766.0
16	16	10	34	508	127.0	1238966.0	12866.0	-778967.0
16	16	10	34	509	128.0	2085566.0	13518.0	-778924.0
16	16	10	34	509	129.0	2723152.0	13949.0	-779398.0
16	16	10	34	510	131.0	3346964.0	13616.0	-779439.0
16	16	10	34	510	132.0	3263746.0	11168.0	-779145.0
16	16	10	34	510	133.0	2821798.0	8262.0	-779389.0
16	16	10	34	510	134.0	2045751.0	6580.0	-779103.0
16	16	10	34	511	135.0	1036291.0	5523.0	-779149.0
16	16	10	34	511	136.0	-60358.0	4929.0	-779035.0
16	16	10	34	533	137.0	-1083214.0	4104.0	-778958.0
16	16	10	34	534	138.0	-1904921.0	4161.0	-778796.0
16	16	10	34	534	139.0	-2441842.0	6733.0	-778732.0
16	16	10	34	534	140.0	-2660924.0	8663.0	-778816.0
16	16	10	34	535	141.0	-2595171.0	9239.0	-778721.0
16	16	10	34	535	142.0	-2329271.0	9846.0	-779027.0
16	16	10	34	535	143.0	-1973020.0	10404.0	-778891.0
16	16	10	34	536	144.0	-1604654.0	10501.0	-779342.0
16	16	10	34	536	145.0	-1262489.0	10623.0	-779093.0
16	16	10	34	536	146.0	-949188.0	10889.0	-779502.0
16	16	10	34	537	147.0	-668621.0	11254.0	-779187.0
16	16	10	34	537	148.0	-398510.0	11214.0	-779378.0
16	16	10	34	537	149.0	-151196.0	11265.0	-779167.0
16	16	10	34	537	150.0	55348.0	11360.0	-779386.0
16	16	10	34	538	151.0	209774.0	11106.0	-779384.0
16	16	10	34	538	153.0	298256.0	11259.0	-779741.0
16	16	10	34	558	154.0	259130.0	10510.0	-779462.0
16	16	10	34	559	155.0	185952.0	8176.0	-779536.0
16	16	10	34	559	156.0	103469.0	6479.0	-779356.0
16	16	10	34	559	157.0	16569.0	5368.0	-779582.0
16	16	10	34	560	158.0	-68987.0	4620.0	-779281.0
16	16	10	34	584	159.0	-131349.0	3911.0	-779461.0
16	16	10	34	584	160.0	-201171.0	3223.0	-779159.0
16	16	10	34	585	161.0	-277067.0	4328.0	-779471.0
16	16	10	34	585	162.0	-310198.0	6069.0	-779194.0
16	16	10	34	585	163.0	-324274.0	7724.0	-779264.0
16	16	10	34	586	164.0	-338138.0	9034.0	-778992.0
16	16	10	34	586	165.0	-351231.0	9529.0	-779045.0
16	16	10	34	586	166.0	-408411.0	9983.0	-778950.0
16	16	10	34	587	167.0	-481413.0	10558.0	-778865.0
16	16	10	34	587	168.0	-539086.0	10511.0	-778800.0
16	16	10	34	587	169.0	-588172.0	11129.0	-778718.0
16	16	10	34	587	170.0	-630453.0	11013.0	-778811.0
16	16	10	34	588	171.0	-640776.0	10830.0	-778617.0
16	16	10	34	588	172.0	-633374.0	10999.0	-778656.0
16	16	10	34	588	173.0	-592924.0	10640.0	-778456.0
16	16	10	34	589	176.0	-171122.0	9892.0	-778669.0
16	16	10	34	589	177.0	38466.0	7504.0	-778441.0
16	16	10	34	589	178.0	236353.0	5266.0	-778769.0
16	16	10	34	589	179.0	419952.0	3960.0	-778501.0
16	16	10	34	590	180.0	581683.0	3288.0	-778706.0
16	16	10	34	590	181.0	687981.0	2272.0	-778677.0
16	16	10	34	613	182.0	749615.0	1574.0	-778802.0
16	16	10	34	613	183.0	772398.0	1514.0	-778852.0
16	16	10	34	614	184.0	765231.0	3818.0	-778749.0
16	16	10	34	615	185.0	772861.0	5396.0	-778957.0
16	16	10	34	615	186.0	797691.0	7231.0	-778964.0
16	16	10	34	616	187.0	818202.0	8257.0	-779026.0
16	16	10	34	616	188.0	849518.0	8838.0	-778903.0
16	16	10	34	638	189.0	906611.0	9527.0	-778909.0
16	16	10	34	638	190.0	965644.0	9834.0	-778670.0
16	16	10	34	638	191.0	1011912.0	11313.0	-778783.0
16	16	10	34	639	192.0	1039752.0	12411.0	-778566.0
16	16	10	34	639	193.0	1036503.0	12909.0	-778829.0
16	16	10	34	639	194.0	1023260.0	12621.0	-778572.0
16	16	10	34	639	195.0	1008375.0	13246.0	-778873.0
16	16	10	34	640	196.0	971038.0	13749.0	-778536.0
16	16	10	34	640	198.0	845465.0	15127.0	-778742.0
16	16	10	34	640	199.0	738261.0	14774.0	-778737.0
16	16	10	34	641	200.0	611085.0	14200.0	-778599.0
16	16	10	34	641	201.0	480637.0	14261.0	-778594.0
16	16	10	34	641	202.0	344001.0	14985.0	-778731.0
16	16	10	34	642	203.0	212012.0	16236.0	-778554.0
16	16	10	34	663	204.0	80656.0	18106.0	-778491.0
16	16	10	34	664	205.0	-71407.0	20597.0	-778294.0
16	16	10	34	664	206.0	-223454.0	24689.0	-778558.0
16	16	10	34	664	207.0	-348009.0	29202.0	-778286.0
16	16	10	34	665	208.0	-451396.0	33001.0	-778470.0
16	16	10	34	703	209.0	-527987.0	36541.0	-778174.0
16	16	10	34	719	210.0	-582059.0	39894.0	-778574.0
16	16	10	34	719	211.0	-629223.0	42986.0	-778252.0
16	16	10	34	719	212.0	-658151.0	46388.0	-778437.0
16	16	10	34	720	213.0	-649525.0	49263.0	-778253.0
16	16	10	34	720	214.0	-620494.0	52308.0	-778271.0
16	16	10	34	720	215.0	-583407.0	54261.0	-778199.0
16	16	10	34	720	216.0	-522422.0	57089.0	-777999.0
16	16	10	34	721	217.0	-436707.0	59712.0	-778154.0
16	16	10	34	721	218.0	-335904.0	62071.0	-778417.0
16	16	10	34	721	220.0	-101049.0	65573.0	-778799.0
16	16	10	34	721	221.0	-1664.0	67053.0	-778639.0
16	16	10	34	721	222.0	88911.0	66539.0	-778681.0
16	16	10	34	722	223.0	162579.0	67490.0	-778635.0
16	16	10	34	722	224.0	221671.0	70428.0	-778572.0
16	16	10	34	722	243.0	608489.0	72389.0	-778172.0
16	16	10	34	723	244.0	518788.0	69047.0	-778809.0
16	16	10	34	723	245.0	422843.0	64488.0	-778496.0
16	16	10	34	723	246.0	335689.0	61328.0	-778719.0
16	16	10	34	723	247.0	275885.0	58159.0	-778651.0
16	16	10	34	723	248.0	228326.0	55198.0	-779067.0
16	16	10	34	747	249.0	214591.0	52067.0	-778693.0
16	16	10	34	748	250.0	226809.0	49629.0	-778876.0
16	16	10	34	748	251.0	233422.0	49722.0	-778692.0
16	16	10	34	772	252.0	232816.0	49059.0	-778944.0
16	16	10	34	773	253.0	253816.0	47602.0	-778750.0
16	16	10	34	773	254.0	257341.0	46294.0	-778904.0
16	16	10	34	773	255.0	233471.0	44463.0	-778732.0
16	16	10	34	773	0.0	206293.0	42864.0	-778651.0
16	16	10	34	774	1.0	148674.0	40735.0	-778590.0
16	16	10	34	774	2.0	32901.0	38814.0	-778564.0
16	16	10	34	774	3.0	-131739.0	36138.0	-778716.0
16	16	10	34	774	4.0	-350541.0	33621.0	-778436.0
16	16	10	34	775	5.0	-656981.0	31071.0	-778499.0
16	16	10	34	775	6.0	-1118960.0	28383.0	-778213.0
16	16	10	34	775	7.0	-1556866.0	25642.0	-778525.0
16	16	10	34	776	9.0	-1143704.0	21623.0	-778408.0
16	16	10	34	776	10.0	-301604.0	18388.0	-778339.0
16	16	10	34	776	11.0	626850.0	13184.0	-778541.0
16	16	10	34	777	12.0	1394521.0	8688.0	-778632.0
16	16	10	34	777	13.0	1880478.0	5021.0	-778589.0
16	16	10	34	777	14.0	2111156.0	2031.0	-778582.0
16	16	10	34	777	15.0	2125661.0	-1136.0	-778415.0
16	16	10	34	800	16.0	2053086.0	-3979.0	-778679.0
16	16	10	34	801	17.0	1925143.0	-5729.0	-778434.0
16	16	10	34	801	18.0	1717868.0	-4969.0	-778659.0
16	16	10	34	801	19.0	1424664.0	-5546.0	-778358.0
16	16	10	34	802	20.0	1050064.0	-6270.0	-778422.0
16	16	10	34	802	21.0	588693.0	-6886.0	-778514.0
16	16	10	34	802	22.0	92556.0	-7786.0	-778627.0
16	16	10	34	803	23.0	-382980.0	-9119.0	-778379.0
16	16	10	34	803	24.0	-795807.0	-10891.0	-778499.0
16	16	10	34	803	25.0	-1121396.0	-12104.0	-778246.0
16	16	10	34	803	26.0	-1374650.0	-13966.0	-778632.0
16	16	10	34	804	27.0	-1524911.0	-15558.0	-778359.0
16	16	10	34	804	28.0	-1565483.0	-16544.0	-778496.0
16	16	10	34	829	29.0	-1572832.0	-17939.0	-778199.0
16	16	10	34	831	30.0	-1580665.0	-19232.0	-778433.0
16	16	10	34	832	32.0	-1497745.0	-20839.0	-778447.0
16	16	10	34	833	33.0	-1420258.0	-23338.0	-778217.0
16	16	10	34	834	34.0	-1258672.0	-26842.0	-778286.0
16	16	10	34	834	35.0	-1000633.0	-28972.0	-778177.0
16	16	10	34	836	36.0	-671401.0	-30868.0	-778274.0
16	16	10	34	837	37.0	-274774.0	-32585.0	-778400.0
16	16	10	34	858	38.0	158787.0	-33752.0	-778389.0
16	16	10	34	859	39.0	612695.0	-34329.0	-778691.0
16	16	10	34	860	40.0	1057806.0	-32493.0	-778484.0
16	16	10	34	861	41.0	1420374.0	-31071.0	-778856.0
16	16	10	34	862	42.0	1679834.0	-31274.0	-778565.0
16	16	10	34	862	43.0	1820228.0	-30882.0	-778823.0
16	16	10	34	863	44.0	1826793.0	-30446.0	-778585.0
16	16	10	34	864	45.0	1718388.0	-30202.0	-778958.0
16	16	10	34	865	46.0	1550653.0	-30532.0	-778654.0
16	16	10	34	866	47.0	1348074.0	-30829.0	-778747.0
16	16	10	34	867	48.0	1114192.0	-30700.0	-778398.0
16	16	10	34	868	49.0	868772.0	-30671.0	-778287.0
16	16	10	34	868	50.0	599516.0	-30938.0	-778151.0
16	16	10	34	869	51.0	325488.0	-31435.0	-778187.0
16	16	10	34	870	52.0	73543.0	-31919.0	-778052.0
16	16	10	34	871	54.0	-365324.0	-33217.0	-778037.0
16	16	10	34	872	55.0	-509331.0	-34296.0	-778310.0
16	16	10	34	873	56.0	-599354.0	-37252.0	-778140.0
16	16	10	34	875	57.0	-647099.0	-39631.0	-778206.0
16	16	10	34	876	58.0	-653368.0	-41066.0	-778213.0
16	16	10	34	877	59.0	-611972.0	-42040.0	-778329.0
16	16	10	34	878	60.0	-550039.0	-42929.0	-778473.0
16	16	10	34	906	61.0	-478122.0	-43901.0	-778424.0
16	16	10	34	907	62.0	-425218.0	-44170.0	-778545.0
16	16	10	34	908	63.0	-401371.0	-42477.0	-778294.0
16	16	10	34	909	64.0	-408681.0	-41124.0	-778465.0
16	16	10	34	910	65.0	-435920.0	-39943.0	-778223.0
16	16	10	34	911	66.0	-500098.0	-39322.0	-778431.0
16	16	10	34	912	67.0	-599953.0	-38577.0	-778172.0
16	16	10	34	913	68.0	-706898.0	-37706.0	-778264.0
16	16	10	34	914	69.0	-802764.0	-37032.0	-778062.0
16	16	10	34	915	70.0	-859033.0	-36536.0	-778074.0
16	16	10	34	916	71.0	-832662.0	-36312.0	-777924.0
16	16	10	34	917	72.0	-720258.0	-35564.0	-777998.0
16	16	10	34	918	73.0	-532532.0	-35739.0	-778138.0
16	16	10	34	918	74.0	-295742.0	-35176.0	-778122.0
16	16	10	34	919	75.0	-55066.0	-34259.0	-778234.0
16	16	10	34	920	77.0	321231.0	-33354.0	-778340.0
16	16	10	34	921	78.0	465268.0	-34854.0	-778102.0
16	16	10	34	922	79.0	556000.0	-36519.0	-778404.0
16	16	10	34	922	80.0	616434.0	-36893.0	-778014.0
16	16	10	34	923	81.0	643136.0	-37445.0	-778182.0
16	16	10	34	924	82.0	632248.0	-37857.0	-777743.0
16	16	10	34	935	83.0	588729.0	-37807.0	-778084.0
16	16	10	34	935	84.0	511408.0	-37255.0	-777803.0
16	16	10	34	936	85.0	392219.0	-34342.0	-777973.0
16	16	10	34	936	86.0	251767.0	-31766.0	-777896.0
16	16	10	34	937	87.0	112101.0	-30228.0	-778183.0
16	16	10	34	937	88.0	-1839.0	-28699.0	-777947.0
16	16	10	34	937	89.0	-75790.0	-27729.0	-778151.0
16	16	10	34	938	90.0	-90904.0	-26506.0	-777824.0
16	16	10	34	938	91.0	-48920.0	-25495.0	-778064.0
16	16	10	34	938	92.0	33461.0	-24207.0	-777788.0
16	16	10	34	939	93.0	161654.0	-23166.0	-778015.0
16	16	10	34	939	94.0	297979.0	-21941.0	-777810.0
16	16	10	34	939	95.0	427253.0	-21171.0	-778102.0
16	16	10	34	941	96.0	531124.0	-20395.0	-778086.0
16	16	10	34	941	97.0	598591.0	-19337.0	-778120.0
16	16	10	34	942	99.0	537759.0	-17249.0	-778039.0
16	16	10	34	943	100.0	437128.0	-17186.0	-778233.0
16	16	10	34	943	101.0	311703.0	-19678.0	-778067.0
16	16	10	34	943	102.0	182171.0	-21243.0	-778363.0
16	16	10	34	944	103.0	34242.0	-21636.0	-778074.0
16	16	10	34	944	104.0	-116961.0	-21856.0	-778147.0
16	16	10	34	944	105.0	-232192.0	-21835.0	-777896.0
16	16	10	34	972	106.0	-316900.0	-21562.0	-778092.0
16	16	10	34	973	107.0	-377130.0	-20444.0	-777906.0
16	16	10	34	974	108.0	-413217.0	-17723.0	-778259.0
16	16	10	34	975	109.0	-415902.0	-15235.0	-778240.0
16	16	10	34	993	110.0	-366900.0	-13489.0	-778327.0
16	16	10	34	994	111.0	-263223.0	-12479.0	-778446.0
16	16	10	34	994	112.0	-114069.0	-11598.0	-778271.0
16	16	10	34	994	113.0	70968.0	-10368.0	-778417.0
16	16	10	34	995	114.0	267883.0	-9489.0	-778111.0
16	16	10	34	995	115.0	476976.0	-8792.0	-778354.0
16	16	10	34	995	116.0	689471.0	-8542.0	-777962.0
16	16	10	34	995	117.0	910394.0	-8089.0	-778254.0
16	16	10	34	996	118.0	1119569.0	-8037.0	-778147.0
16	16	10	34	996	119.0	1291496.0	-7695.0	-778543.0
16	16	10	34	996	120.0	1392369.0	-7501.0	-778250.0
16	16	10	34	997	122.0	1448383.0	-7793.0	-778386.0
16	16	10	34	997	123.0	1441866.0	-10012.0	-778792.0
16	16	10	34	997	124.0	1438534.0	-12459.0	-778546.0
16	16	10	34	998	125.0	1424748.0	-13756.0	-778731.0
16	16	10	34	998	126.0	1381765.0	-14622.0	-778504.0
16	16	10	34	998	127.0	1318295.0	-15281.0	-778666.0
16	16	10	35	22	128.0	1231184.0	-15936.0	-778576.0
16	16	10	35	23	129.0	1127827.0	-16003.0	-778678.0
16	16	10	35	23	130.0	1012618.0	-13284.0	-778692.0
16	16	10	35	23	131.0	899568.0	-11362.0	-778557.0
16	16	10	35	24	132.0	797291.0	-10109.0	-778604.0
16	16	10	35	24	133.0	721811.0	-9347.0	-778377.0
16	16	10	35	24	134.0	688246.0	-8672.0	-778545.0
16	16	10	35	25	135.0	659649.0	-8121.0	-778322.0
16	16	10	35	25	136.0	618044.0	-8139.0	-778562.0
16	16	10	35	26	137.0	561190.0	-8432.0	-778349.0
16	16	10	35	52	138.0	484329.0	-8786.0	-778672.0
16	16	10	35	52	139.0	400837.0	-8646.0	-778510.0
16	16	10	35	52	140.0	315750.0	-9013.0	-778668.0
16	16	10	35	53	141.0	225947.0	-9302.0	-778469.0
16	16	10	35	53	142.0	125684.0	-9857.0	-778547.0
16	16	10	35	53	144.0	-49514.0	-9927.0	-778454.0
16	16	10	35	53	145.0	-133744.0	-10862.0	-778467.0
16	16	10	35	54	146.0	-186934.0	-13530.0	-778243.0
16	16	10	35	54	147.0	-213264.0	-15164.0	-778381.0
16	16	10	35	54	148.0	-216625.0	-16277.0	-777977.0
16	16	10	35	55	149.0	-215572.0	-17329.0	-778291.0
16	16	10	35	55	150.0	-216156.0	-18044.0	-777979.0
16	16	10	35	81	151.0	-212777.0	-18306.0	-778361.0
16	16	10	35	82	152.0	-210594.0	-18053.0	-778074.0
16	16	10	35	82	153.0	-205882.0	-16025.0	-778341.0
16	16	10	35	83	154.0	-211148.0	-14881.0	-778064.0
16	16	10	35	83	155.0	-233112.0	-13731.0	-778448.0
16	16	10	35	83	156.0	-266684.0	-12850.0	-778307.0
16	16	10	35	84	157.0	-302638.0	-12725.0	-778431.0
16	16	10	35	84	158.0	-363713.0	-11696.0	-778280.0
16	16	10	35	85	159.0	-427896.0	-10860.0	-778231.0
16	16	10	35	85	160.0	-504561.0	-10256.0	-778162.0
16	16	10	35	85	161.0	-577517.0	-9969.0	-778039.0
16	16	10	35	86	162.0	-645154.0	-10062.0	-778083.0
16	16	10	35	111	163.0	-710850.0	-10012.0	-777802.0
16	16	10	35	112	164.0	-778676.0	-10322.0	-777933.0
16	16	10	35	112	165.0	-841999.0	-9761.0	-777714.0
16	16	10	35	112	167.0	-880274.0	-9570.0	-777741.0
16	16	10	35	113	168.0	-863181.0	-11573.0	-777906.0
16	16	10	35	113	169.0	-812661.0	-13272.0	-777686.0
16	16	10	35	141	170.0	-720607.0	-14214.0	-777844.0
16	16	10	35	141	171.0	-596178.0	-14581.0	-777739.0
16	16	10	35	141	172.0	-456262.0	-13082.0	-777931.0
16	16	10	35	142	173.0	-322476.0	-11289.0	-777937.0
16	16	10	35	142	174.0	-212984.0	-10106.0	-777933.0
16	16	10	35	143	175.0	-130094.0	-9888.0	-777946.0
16	16	10	35	143	176.0	-77162.0	-9341.0	-777959.0
16	16	10	35	143	177.0	-65472.0	-9026.0	-778182.0
16	16	10	35	144	178.0	-94606.0	-8202.0	-777844.0
16	16	10	35	144	189.0	-339857.0	-4552.0	-778405.0
16	16	10	35	145	190.0	-208187.0	-5191.0	-778183.0
16	16	10	35	146	191.0	-75917.0	-7633.0	-778492.0
16	16	10	35	146	192.0	44701.0	-9213.0	-778252.0
16	16	10	35	146	193.0	146901.0	-10404.0	-778441.0
16	16	10	35	147	194.0	244433.0	-11009.0	-778349.0
16	16	10	35	147	195.0	336141.0	-11410.0	-778244.0
16	16	10	35	170	196.0	422703.0	-11142.0	-778133.0
16	16	10	35	170	197.0	485529.0	-10612.0	-778152.0
16	16	10	35	171	198.0	518864.0	-7831.0	-778346.0
16	16	10	35	171	199.0	524290.0	-5764.0	-778062.0
16	16	10	35	171	200.0	510496.0	-4280.0	-778068.0
16	16	10	35	172	201.0	472012.0	-3422.0	-777814.0
16	16	10	35	172	202.0	431271.0	-2621.0	-778011.0
16	16	10	35	172	203.0	371504.0	-1703.0	-777849.0
16	16	10	35	172	204.0	292172.0	-1371.0	-778239.0
16	16	10	35	173	205.0	195551.0	-412.0	-777987.0
16	16	10	35	173	206.0	80706.0	31.0	-778279.0
16	16	10	35	173	207.0	-30987.0	313.0	-778107.0
16	16	10	35	174	208.0	-133856.0	658.0	-778267.0
16	16	10	35	174	209.0	-206421.0	1204.0	-778126.0
16	16	10	35	174	210.0	-243187.0	2146.0	-778269.0
16	16	10	35	174	212.0	-219188.0	2313.0	-778195.0
16	16	10	35	175	213.0	-181285.0	279.0	-778526.0
16	16	10	35	175	214.0	-151014.0	-1774.0	-778239.0
16	16	10	35	175	215.0	-114262.0	-2981.0	-778672.0
16	16	10	35	175	216.0	-54174.0	-3676.0	-778688.0
16	16	10	35	176	217.0	31213.0	-4048.0	-779051.0
16	16	10	35	199	218.0	145894.0	-4881.0	-778759.0
16	16	10	35	200	219.0	267508.0	-4292.0	-779137.0
16	16	10	35	200	220.0	380233.0	-1474.0	-778841.0
16	16	10	35	229	221.0	468516.0	833.0	-778831.0
16	16	10	35	230	222.0	532298.0	2696.0	-778481.0
16	16	10	35	230	223.0	595113.0	3897.0	-778757.0
16	16	10	35	231	224.0	638846.0	4663.0	-778485.0
16	16	10	35	231	225.0	673156.0	5096.0	-778726.0
16	16	10	35	231	226.0	706775.0	5544.0	-778560.0
16	16	10	35	232	227.0	732220.0	6435.0	-778471.0
16	16	10	35	232	228.0	743266.0	6933.0	-778412.0
16	16	10	35	232	229.0	738938.0	7213.0	-778469.0
16	16	10	35	232	230.0	714125.0	6747.0	-778603.0
16	16	10	35	233	231.0	663278.0	7231.0	-778441.0
16	16	10	35	233	232.0	585503.0	7308.0	-778619.0
16	16	10	35	233	234.0	364449.0	8118.0	-778876.0
16	16	10	35	233	235.0	243571.0	6567.0	-778631.0
16	16	10	35	234	236.0	117431.0	4393.0	-778866.0
16	16	10	35	234	237.0	7707.0	3477.0	-778553.0
16	16	10	35	234	238.0	-81458.0	2653.0	-778679.0
16	16	10	35	235	239.0	-145691.0	2209.0	-778436.0
16	16	10	35	235	240.0	-168900.0	2056.0	-778519.0
16	16	10	35	261	241.0	-172867.0	2043.0	-778392.0
16	16	10	35	262	242.0	-162479.0	3024.0	-778426.0
16	16	10	35	262	243.0	-163770.0	4838.0	-778372.0
16	16	10	35	262	244.0	-187677.0	6365.0	-778142.0
16	16	10	35	263	245.0	-226424.0	7463.0	-778236.0
16	16	10	35	263	246.0	-279088.0	8511.0	-777928.0
16	16	10	35	263	247.0	-346031.0	9290.0	-778014.0
16	16	10	35	264	248.0	-410809.0	9494.0	-777920.0
16	16	10	35	264	249.0	-479702.0	10013.0	-778030.0
16	16	10	35	264	250.0	-514814.0	10081.0	-777797.0
16	16	10	35	265	251.0	-490066.0	10331.0	-778056.0
16	16	10	35	265	252.0	-396007.0	10718.0	-777835.0
16	16	10	35	265	253.0	-229053.0	10685.0	-778091.0
16	16	10	35	265	254.0	3464.0	10914.0	-777856.0
16	16	10	35	266	255.0	269341.0	11018.0	-778140.0
16	16	10	35	266	1.0	848948.0	11449.0	-778232.0
16	16	10	35	266	2.0	1124904.0	9479.0	-777996.0
16	16	10	35	267	3.0	1392403.0	7893.0	-778079.0
16	16	10	35	267	4.0	1602246.0	6471.0	-777984.0
16	16	10	35	267	5.0	1731984.0	5848.0	-778022.0
16	16	10	35	267	6.0	1796189.0	5133.0	-778001.0
16	16	10	35	293	7.0	1764264.0	4768.0	-778037.0
16	16	10	35	294	8.0	1625384.0	5160.0	-778244.0
16	16	10	35	294	9.0	1398102.0	7899.0	-778032.0
16	16	10	35	295	10.0	962356.0	9506.0	-778252.0
16	16	10	35	295	11.0	103760.0	10137.0	-777937.0
16	16	10	35	295	12.0	-1185881.0	10614.0	-777936.0
16	16	10	35	296	13.0	-2518017.0	11100.0	-777419.0
16	16	10	35	296	14.0	-3466526.0	11830.0	-777504.0
16	16	10	35	327	15.0	-3850927.0	12688.0	-777151.0
16	16	10	35	328	16.0	-3682542.0	12729.0	-777283.0
16	16	10	35	328	17.0	-3079134.0	13009.0	-777190.0
16	16	10	35	329	18.0	-2203118.0	13192.0	-777461.0
16	16	10	35	329	19.0	-1170667.0	12640.0	-777497.0
16	16	10	35	329	20.0	-66598.0	12345.0	-777717.0
16	16	10	35	329	21.0	989544.0	12338.0	-777987.0
16	16	10	35	330	23.0	2491883.0	13510.0	-777955.0
16	16	10	35	330	24.0	2764104.0	11831.0	-778005.0
16	16	10	35	330	25.0	2607287.0	8767.0	-778167.0
16	16	10	35	331	26.0	2108383.0	7154.0	-777880.0
16	16	10	35	331	27.0	1414429.0	5556.0	-778087.0
16	16	10	35	331	28.0	558246.0	4543.0	-777816.0
16	16	10	35	359	29.0	-402618.0	3840.0	-777957.0
16	16	10	35	359	30.0	-1300068.0	3616.0	-777554.0
16	16	10	35	360	31.0	-1965390.0	5658.0	-777714.0
16	16	10	35	360	32.0	-2255204.0	7572.0	-777426.0
16	16	10	35	360	33.0	-2113636.0	9104.0	-777846.0
16	16	10	35	361	34.0	-1592344.0	10134.0	-777761.0
16	16	10	35	361	35.0	-817871.0	10767.0	-777964.0
16	16	10	35	361	36.0	24802.0	11759.0	-777977.0
16	16	10	35	362	37.0	796203.0	12226.0	-778136.0
16	16	10	35	362	38.0	1402098.0	12326.0	-778261.0
16	16	10	35	362	39.0	1787031.0	12429.0	-778162.0
16	16	10	35	363	40.0	1980824.0	12586.0	-778292.0
16	16	10	35	363	41.0	2011981.0	12881.0	-778086.0
16	16	10	35	363	42.0	1890336.0	13436.0	-778271.0
16	16	10	35	363	43.0	1641432.0	13019.0	-778056.0
16	16	10	35	364	46.0	322924.0	11866.0	-778054.0
16	16	10	35	364	47.0	-207144.0	8976.0	-777676.0
16	16	10	35	364	48.0	-710321.0	6839.0	-777762.0
16	16	10	35	364	49.0	-1129771.0	5630.0	-777449.0
16	16	10	35	365	50.0	-1447846.0	4698.0	-777705.0
16	16	10	35	365	51.0	-1667788.0	3440.0	-777462.0
16	16	10	35	422	52.0	-1785596.0	2853.0	-777591.0
16	16	10	35	423	53.0	-1801095.0	3493.0	-777697.0
16	16	10	35	468	54.0	-1718761.0	5545.0	-777406.0
16	16	10	35	469	55.0	-1565611.0	7357.0	-777507.0
16	16	10	35	480	56.0	-1377900.0	8258.0	-777591.0
16	16	10	35	481	57.0	-1213991.0	9554.0	-777654.0
16	16	10	35	481	58.0	-1059259.0	9726.0	-777745.0
16	16	10	35	481	59.0	-918024.0	10136.0	-777682.0
16	16	10	35	482	60.0	-807126.0	10411.0	-777841.0
16	16	10	35	482	61.0	-712256.0	10581.0	-777892.0
16	16	10	35	482	62.0	-628397.0	10947.0	-777895.0
16	16	10	35	483	63.0	-567551.0	11074.0	-778026.0
16	16	10	35	483	64.0	-476528.0	10782.0	-777858.0
16	16	10	35	483	65.0	-335572.0	10458.0	-778159.0
16	16	10	35	484	66.0	-133264.0	10286.0	-778006.0
16	16	10	35	484	90.0	179963.0	13793.0	-778062.0
16	16	10	35	484	91.0	210768.0	13749.0	-778114.0
16	16	10	35	485	92.0	214461.0	12785.0	-778154.0
16	16	10	35	485	113.0	174369.0	65257.0	-777953.0
16	16	10	35	486	114.0	310810.0	65429.0	-778335.0
16	16	10	35	486	115.0	416457.0	64456.0	-777995.0
16	16	10	35	513	116.0	491884.0	64594.0	-778066.0
16	16	10	35	514	117.0	551548.0	64474.0	-777997.0
16	16	10	35	514	118.0	607711.0	65050.0	-778121.0
16	16	10	35	515	119.0	652156.0	65888.0	-777952.0
16	16	10	35	543	120.0	672895.0	68241.0	-778241.0
16	16	10	35	544	121.0	663978.0	71771.0	-777888.0
16	16	10	35	544	122.0	620721.0	73874.0	-778146.0
16	16	10	35	544	123.0	559108.0	75338.0	-777910.0
16	16	10	35	545	124.0	496095.0	76659.0	-778196.0
16	16	10	35	545	125.0	428989.0	78194.0	-778059.0
16	16	10	35	545	126.0	367137.0	79088.0	-778054.0
16	16	10	35	546	127.0	325641.0	79581.0	-777903.0
16	16	10	35	546	128.0	305433.0	79183.0	-778083.0
16	16	10	35	546	129.0	298426.0	79417.0	-778186.0
16	16	10	35	547	130.0	309951.0	79312.0	-778079.0
16	16	10	35	547	135.0	290528.0	73208.0	-778294.0
16	16	10	35	547	136.0	308819.0	70293.0	-778074.0
16	16	10	35	547	137.0	332384.0	66040.0	-778139.0
16	16	10	35	548	138.0	349926.0	62498.0	-778002.0
16	16	10	35	548	139.0	371693.0	59421.0	-778177.0
16	16	10	35	548	140.0	375606.0	56646.0	-778007.0
16	16	10	35	549	141.0	366023.0	53887.0	-777876.0
16	16	10	35	573	142.0	367779.0	51370.0	-777819.0
16	16	10	35	574	143.0	353821.0	49311.0	-777773.0
16	16	10	35	574	144.0	315043.0	49193.0	-777786.0
16	16	10	35	574	145.0	270903.0	48774.0	-777651.0
16	16	10	35	575	146.0	243460.0	47406.0	-778053.0
16	16	10	35	575	147.0	241769.0	45469.0	-777767.0
16	16	10	35	575	148.0	274756.0	43158.0	-778196.0
16	16	10	35	576	149.0	331184.0	40991.0	-777804.0
16	16	10	35	576	150.0	393484.0	39235.0	-778074.0
16	16	10	35	576	151.0	466950.0	36682.0	-777954.0
16	16	10	35	577	152.0	522374.0	33566.0	-778335.0
16	16	10	35	577	153.0	524011.0	30844.0	-777985.0
16	16	10	35	577	154.0	449978.0	28331.0	-778314.0
16	16	10	35	577	155.0	286214.0	25518.0	-778079.0
16	16	10	35	578	156.0	-30245.0	22469.0	-778322.0
16	16	10	35	578	158.0	-1111639.0	17261.0	-778148.0
16	16	10	35	578	159.0	-1237934.0	13079.0	-777980.0
16	16	10	35	578	160.0	-862846.0	8162.0	-778182.0
16	16	10	35	579	161.0	-127982.0	4379.0	-778255.0
16	16	10	35	579	162.0	626758.0	1060.0	-778327.0
16	16	10	35	579	163.0	1142841.0	-1776.0	-778529.0
16	16	10	35	603	164.0	1354609.0	-4817.0	-778372.0
16	16	10	35	603	165.0	1343777.0	-7141.0	-778575.0
16	16	10	35	604	166.0	1193566.0	-7058.0	-778299.0
16	16	10	35	604	167.0	1004378.0	-7151.0	-778322.0
16	16	10	35	605	168.0	839997.0	-7673.0	-777955.0
16	16	10	35	605	169.0	665806.0	-8419.0	-777929.0
16	16	10	35	635	170.0	447730.0	-9731.0	-777631.0
16	16	10	35	635	171.0	171989.0	-10968.0	-777817.0
16	16	10	35	635	172.0	-170397.0	-12494.0	-777574.0
16	16	10	35	636	173.0	-523256.0	-13730.0	-777619.0
16	16	10	35	636	174.0	-834762.0	-14513.0	-777449.0
16	16	10	35	636	175.0	-1034444.0	-16096.0	-777585.0
16	16	10	35	637	176.0	-1155093.0	-17726.0	-777576.0
16	16	10	35	637	177.0	-1178697.0	-19352.0	-777489.0
16	16	10	35	637	178.0	-1099324.0	-20422.0	-777492.0
16	16	10	35	638	180.0	-853479.0	-22471.0	-777696.0
16	16	10	35	638	181.0	-711982.0	-23912.0	-777304.0
16	16	10	35	638	182.0	-569429.0	-27095.0	-777508.0
16	16	10	35	639	183.0	-451425.0	-29984.0	-777439.0
16	16	10	35	640	184.0	-351033.0	-32177.0	-777732.0
16	16	10	35	640	185.0	-233807.0	-33685.0	-777754.0
16	16	10	35	641	186.0	-85136.0	-34951.0	-778067.0
16	16	10	35	666	187.0	101007.0	-36529.0	-777905.0
16	16	10	35	666	188.0	319494.0	-37277.0	-778148.0
16	16	10	35	667	189.0	529951.0	-35171.0	-777967.0
16	16	10	35	667	190.0	700421.0	-33857.0	-778359.0
16	16	10	35	668	191.0	829231.0	-32906.0	-778101.0
16	16	10	35	668	192.0	889394.0	-31914.0	-778439.0
16	16	10	35	669	193.0	869223.0	-31419.0	-778237.0
16	16	10	35	669	194.0	789821.0	-30681.0	-778367.0
16	16	10	35	670	195.0	664779.0	-30726.0	-778078.0
16	16	10	35	670	196.0	521162.0	-30514.0	-778174.0
16	16	10	35	671	197.0	391757.0	-30223.0	-778278.0
16	16	10	35	671	198.0	290441.0	-30488.0	-778167.0
16	16	10	35	672	199.0	225134.0	-30372.0	-778225.0
16	16	10	35	672	200.0	191773.0	-30421.0	-778019.0
16	16	10	35	672	201.0	180198.0	-30525.0	-778076.0
16	16	10	35	673	203.0	202726.0	-31574.0	-778136.0
16	16	10	35	673	204.0	218613.0	-33981.0	-777862.0
16	16	10	35	674	205.0	240179.0	-36417.0	-778039.0
16	16	10	35	674	206.0	245141.0	-37649.0	-777748.0
16	16	10	35	674	207.0	273369.0	-38547.0	-777922.0
16	16	10	35	675	208.0	308793.0	-39374.0	-777646.0
16	16	10	35	738	209.0	345018.0	-40197.0	-777837.0
16	16	10	35	738	210.0	366840.0	-40292.0	-777779.0
16	16	10	35	739	211.0	368581.0	-39006.0	-777801.0
16	16	10	35	748	212.0	351808.0	-37845.0	-777913.0
16	16	10	35	749	213.0	329605.0	-37221.0	-777698.0
16	16	10	35	749	214.0	302854.0	-35896.0	-777809.0
16	16	10	35	749	215.0	268480.0	-34943.0	-777843.0
16	16	10	35	750	216.0	241273.0	-35221.0	-777995.0
16	16	10	35	750	217.0	223247.0	-35139.0	-777918.0
16	16	10	35	751	218.0	212211.0	-35419.0	-778177.0
16	16	10	35	751	219.0	199743.0	-35022.0	-778011.0
16	16	10	35	751	220.0	178816.0	-34676.0	-778275.0
16	16	10	35	752	221.0	157392.0	-33694.0	-778004.0
16	16	10	35	752	222.0	126303.0	-33154.0	-778268.0
16	16	10	35	753	223.0	92001.0	-32862.0	-777964.0
16	16	10	35	791	248.0	-250866.0	-20434.0	-777931.0
16	16	10	35	791	249.0	-273299.0	-22148.0	-777810.0
16	16	10	35	791	250.0	-285152.0	-23491.0	-777846.0
16	16	10	35	792	251.0	-308744.0	-24080.0	-777719.0
16	16	10	35	792	252.0	-338088.0	-24635.0	-777851.0
16	16	10	35	792	253.0	-357531.0	-24822.0	-777646.0
16	16	10	35	792	254.0	-365350.0	-24895.0	-777891.0
16	16	10	35	792	255.0	-356647.0	-23989.0	-777657.0
16	16	10	35	793	0.0	-338696.0	-21512.0	-777971.0
16	16	10	35	793	1.0	-289361.0	-19129.0	-777702.0
16	16	10	35	793	2.0	-232512.0	-17878.0	-778001.0
16	16	10	35	794	3.0	-174659.0	-16244.0	-777726.0
16	16	10	35	794	4.0	-114502.0	-15281.0	-777823.0
16	16	10	35	831	5.0	-55891.0	-14931.0	-777751.0
16	16	10	35	851	6.0	16154.0	-14050.0	-777699.0
16	16	10	35	851	7.0	93674.0	-13118.0	-777640.0
16	16	10	35	851	8.0	175313.0	-12549.0	-777606.0
16	16	10	35	882	9.0	250005.0	-11767.0	-777816.0
16	16	10	35	883	10.0	318786.0	-11124.0	-777637.0
16	16	10	35	883	11.0	376656.0	-10682.0	-777893.0
16	16	10	35	883	12.0	419748.0	-10530.0	-777651.0
16	16	10	35	883	14.0	492696.0	-10434.0	-777456.0
16	16	10	35	884	15.0	522769.0	-11192.0	-777797.0
16	16	10	35	884	16.0	559715.0	-13738.0	-777501.0
16	16	10	35	884	17.0	604899.0	-15125.0	-777763.0
16	16	10	35	884	18.0	656579.0	-13482.0	-777492.0
16	16	10	35	885	19.0	703646.0	-12366.0	-777765.0
16	16	10	35	885	20.0	740005.0	-11411.0	-777723.0
16	16	10	35	885	37.0	-311684.0	-12468.0	-777761.0
16	16	10	35	885	38.0	-340460.0	-14809.0	-777854.0
16	16	10	35	886	39.0	-361367.0	-16094.0	-777630.0
16	16	10	35	886	40.0	-383504.0	-14857.0	-777754.0
16	16	10	35	914	41.0	-406881.0	-14236.0	-777616.0
16	16	10	35	914	59.0	-301631.0	-13562.0	-778125.0
16	16	10	35	914	60.0	-327560.0	-14701.0	-778031.0
16	16	10	35	914	61.0	-350974.0	-16854.0	-778058.0
16	16	10	35	915	62.0	-370399.0	-18036.0	-777932.0
16	16	10	35	915	63.0	-390911.0	-18893.0	-777817.0
16	16	10	35	915	64.0	-398783.0	-19766.0	-777714.0
16	16	10	35	915	65.0	-391817.0	-20052.0	-777656.0
16	16	10	35	949	66.0	-369567.0	-20096.0	-777899.0
16	16	10	35	949	67.0	-343407.0	-19836.0	-777642.0
16	16	10	35	949	68.0	-312782.0	-17706.0	-777896.0
16	16	10	35	949	69.0	-277276.0	-15490.0	-777676.0
16	16	10	35	950	70.0	-237722.0	-14062.0	-777766.0
16	16	10	35	950	71.0	-206242.0	-12752.0	-777487.0
16	16	10	35	950	72.0	-194904.0	-12215.0	-777763.0
16	16	10	35	950	73.0	-203409.0	-11544.0	-777647.0
16	16	10	35	950	74.0	-238367.0	-10417.0	-777751.0
16	16	10	35	951	75.0	-315893.0	-9994.0	-777741.0
16	16	10	35	951	76.0	-427207.0	-10056.0	-777783.0
16	16	10	35	951	77.0	-564451.0	-9529.0	-777944.0
16	16	10	35	951	78.0	-717919.0	-8950.0	-777798.0
16	16	10	35	952	79.0	-877862.0	-8786.0	-778109.0
16	16	10	35	952	80.0	-1027098.0	-8505.0	-777767.0
16	16	10	35	984	82.0	-1241197.0	-7838.0	-777718.0
16	16	10	35	984	83.0	-1271154.0	-9902.0	-777692.0
16	16	10	36	19	84.0	-1232680.0	-11464.0	-777531.0
16	16	10	36	55	85.0	-1125195.0	-12211.0	-777674.0
16	16	10	36	92	86.0	-970189.0	-12994.0	-777473.0
16	16	10	36	93	87.0	-773698.0	-13091.0	-777717.0
16	16	10	36	93	88.0	-545749.0	-11713.0	-777492.0
16	16	10	36	93	89.0	-302496.0	-9389.0	-777854.0
16	16	10	36	128	90.0	-63141.0	-7984.0	-777642.0
16	16	10	36	128	91.0	156755.0	-6641.0	-777995.0
16	16	10	36	128	92.0	354243.0	-5136.0	-777787.0
16	16	10	36	129	93.0	520189.0	-3964.0	-777940.0
16	16	10	36	129	94.0	650097.0	-3363.0	-777634.0
16	16	10	36	129	95.0	733592.0	-2507.0	-777722.0
16	16	10	36	129	96.0	773404.0	-1802.0	-777575.0
16	16	10	36	130	97.0	769133.0	-1770.0	-777594.0
16	16	10	36	130	104.0	350753.0	2114.0	-777129.0
16	16	10	36	130	127.0	25261.0	7056.0	-777077.0
16	16	10	36	130	149.0	1255003.0	10179.0	-777765.0
16	16	10	36	131	150.0	1358219.0	8648.0	-777854.0
16	16	10	36	131	151.0	1394490.0	6031.0	-778007.0
16	16	10	36	131	152.0	1361943.0	6029.0	-777962.0
16	16	10	36	131	153.0	1273777.0	7944.0	-778133.0
16	16	10	36	132	154.0	1116747.0	8836.0	-777901.0
16	16	10	36	132	172.0	3150213.0	13251.0	-778412.0
16	16	10	36	132	173.0	2471770.0	10559.0	-778039.0
16	16	10	36	132	174.0	1623061.0	8534.0	-778295.0
16	16	10	36	133	175.0	718224.0	7392.0	-777953.0
16	16	10	36	133	176.0	-202964.0	6194.0	-778129.0
16	16	10	36	133	177.0	-1083527.0	4973.0	-777821.0
16	16	10	36	166	178.0	-1772799.0	4128.0	-777911.0
16	16	10	36	166	179.0	-2148072.0	4069.0	-777754.0
16	16	10	36	166	180.0	-2146954.0	5509.0	-777674.0
16	16	10	36	167	181.0	-1825069.0	6823.0	-777824.0
16	16	10	36	167	182.0	-1290833.0	7429.0	-777747.0
16	16	10	36	167	183.0	-693799.0	8578.0	-777864.0
16	16	10	36	167	184.0	-151621.0	9393.0	-777679.0
16	16	10	36	168	185.0	297266.0	10672.0	-777813.0
16	16	10	36	168	186.0	617046.0	10896.0	-777591.0
16	16	10	36	168	187.0	844242.0	10884.0	-777922.0
16	16	10	36	168	188.0	989801.0	11245.0	-777746.0
16	16	10	36	169	189.0	1071119.0	11254.0	-778035.0
16	16	10	36	169	190.0	1043012.0	10438.0	-777834.0
16	16	10	36	169	191.0	913783.0	10467.0	-778049.0
16	16	10	36	169	192.0	675523.0	11088.0	-777852.0
16	16	10	36	170	194.0	-7526.0	11438.0	-777766.0
16	16	10	36	170	195.0	-366789.0	9857.0	-777564.0
16	16	10	36	170	196.0	-676132.0	7615.0	-777633.0
16	16	10	36	170	197.0	-923049.0	6116.0	-777352.0
16	16	10	36	170	198.0	-1077446.0	5034.0	-777411.0
16	16	10	36	171	199.0	-1139297.0	4054.0	-777276.0
16	16	10	36	204	200.0	-1105773.0	3794.0	-777749.0
16	16	10	36	205	201.0	-987114.0	3127.0	-777537.0
16	16	10	36	205	202.0	-807099.0	4265.0	-777864.0
16	16	10	36	205	203.0	-606944.0	6384.0	-777575.0
16	16	10	36	205	204.0	-430574.0	7563.0	-777969.0
16	16	10	36	206	205.0	-282837.0	8491.0	-777756.0
16	16	10	36	206	206.0	-154101.0	8550.0	-777822.0
16	16	10	36	206	207.0	-51250.0	9557.0	-777769.0
16	16	10	36	206	208.0	11763.0	10174.0	-778001.0
16	16	10	36	206	209.0	24864.0	10091.0	-777820.0
16	16	10	36	207	210.0	17053.0	10853.0	-778011.0
16	16	10	36	207	211.0	-2817.0	11286.0	-777696.0
16	16	10	36	207	212.0	-23426.0	10978.0	-777901.0
16	16	10	36	207	213.0	-38976.0	11174.0	-777682.0
16	16	10	36	243	214.0	-58991.0	11089.0	-777604.0
16	16	10	36	243	216.0	-80700.0	11111.0	-777385.0
16	16	10	36	243	217.0	-68939.0	10316.0	-777349.0
16	16	10	36	244	218.0	-41082.0	7544.0	-777314.0
16	16	10	36	244	219.0	30.0	5717.0	-777527.0
16	16	10	36	244	220.0	56085.0	4039.0	-777392.0
16	16	10	36	244	221.0	119752.0	2932.0	-777414.0
16	16	10	36	245	222.0	178685.0	3626.0	-777172.0
16	16	10	36	245	223.0	226028.0	6271.0	-777356.0
16	16	10	36	245	224.0	271412.0	7328.0	-777079.0
16	16	10	36	245	225.0	318878.0	7842.0	-777361.0
16	16	10	36	246	226.0	366184.0	8686.0	-777191.0
16	16	10	36	246	227.0	400693.0	9059.0	-777370.0
16	16	10	36	246	228.0	429621.0	9169.0	-777362.0
16	16	10	36	246	229.0	428135.0	9738.0	-777353.0
16	16	10	36	246	239.0	17413.0	14875.0	-777587.0
16	16	10	36	247	240.0	-2466.0	14693.0	-777877.0
16	16	10	36	283	241.0	-22324.0	13653.0	-777817.0
16	16	10	36	283	242.0	-63081.0	13962.0	-778107.0
16	16	10	36	283	243.0	-105254.0	14619.0	-777813.0
16	16	10	36	284	244.0	-151206.0	15811.0	-778046.0
16	16	10	36	284	245.0	-205826.0	17741.0	-777947.0
16	16	10	36	284	246.0	-243175.0	20380.0	-777872.0
16	16	10	36	285	247.0	-297118.0	25496.0	-777717.0
16	16	10	36	285	248.0	-370379.0	30102.0	-777682.0
16	16	10	36	285	249.0	-458299.0	33941.0	-777794.0
16	16	10	36	286	250.0	-563857.0	37450.0	-777607.0
16	16	10	36	286	251.0	-663481.0	41412.0	-777609.0
16	16	10	36	286	252.0	-735476.0	44891.0	-777489.0
16	16	10	36	286	253.0	-812380.0	48351.0	-777759.0
16	16	10	36	287	254.0	-878256.0	51351.0	-777533.0
16	16	10	36	322	255.0	-930242.0	54395.0	-777835.0
16	16	10	36	322	0.0	-949046.0	57213.0	-777654.0
16	16	10	36	323	1.0	-937532.0	59843.0	-777765.0
16	16	10	36	323	2.0	-856640.0	62484.0	-777521.0
16	16	10	36	323	3.0	-737251.0	64312.0	-777596.0
16	16	10	36	323	5.0	-487785.0	68181.0	-777787.0
16	16	10	36	324	6.0	-353830.0	69392.0	-777951.0
16	16	10	36	324	7.0	-246356.0	68044.0	-777891.0
16	16	10	36	324	8.0	-154282.0	67862.0	-778132.0
16	16	10	36	324	9.0	-69066.0	68190.0	-778012.0
16	16	10	36	325	10.0	-6547.0	68066.0	-778368.0
16	16	10	36	325	11.0	48924.0	68246.0	-778002.0
16	16	10	36	363	12.0	89502.0	68861.0	-778279.0
16	16	10	36	363	13.0	116446.0	69767.0	-777975.0
16	16	10	36	363	14.0	127325.0	72496.0	-778301.0
16	16	10	36	363	15.0	137025.0	74791.0	-777972.0
16	16	10	36	364	16.0	170609.0	75947.0	-778255.0
16	16	10	36	364	17.0	193393.0	76548.0	-778167.0
16	16	10	36	364	18.0	222161.0	76317.0	-778426.0
16	16	10	36	364	19.0	266711.0	76545.0	-778101.0
16	16	10	36	365	20.0	292822.0	76310.0	-778258.0
16	16	10	36	365	21.0	316812.0	75527.0	-778134.0
16	16	10	36	365	22.0	338969.0	75610.0	-778161.0
16	16	10	36	365	23.0	340817.0	74558.0	-778104.0
16	16	10	36	366	24.0	326241.0	73708.0	-778175.0
16	16	10	36	366	25.0	303640.0	72884.0	-778241.0
16	16	10	36	366	26.0	263628.0	71774.0	-778121.0
16	16	10	36	366	28.0	147544.0	68681.0	-778139.0
16	16	10	36	367	29.0	90278.0	65212.0	-778241.0
16	16	10	36	367	30.0	43178.0	61263.0	-778009.0
16	16	10	36	367	31.0	27637.0	57743.0	-778134.0
16	16	10	36	367	32.0	20309.0	54089.0	-777844.0
16	16	10	36	368	33.0	7669.0	51335.0	-778084.0
16	16	10	36	408	34.0	-3512.0	48718.0	-777879.0
16	16	10	36	408	35.0	-11191.0	45943.0	-777951.0
16	16	10	36	409	36.0	-13088.0	45217.0	-777816.0
16	16	10	36	409	37.0	-3647.0	44568.0	-777949.0
16	16	10	36	409	38.0	26141.0	42936.0	-777960.0
16	16	10	36	409	39.0	88587.0	41169.0	-777918.0
16	16	10	36	409	40.0	172307.0	39789.0	-778012.0
16	16	10	36	410	41.0	254872.0	38230.0	-777815.0
16	16	10	36	410	42.0	307359.0	35595.0	-778107.0
16	16	10	36	410	43.0	315184.0	32681.0	-777837.0
16	16	10	36	410	44.0	251693.0	30323.0	-777986.0
16	16	10	36	411	45.0	104147.0	27738.0	-777631.0
16	16	10	36	411	46.0	-165571.0	25436.0	-777924.0
16	16	10	36	411	47.0	-636180.0	22947.0	-777468.0
16	16	10	36	411	48.0	-1270359.0	20519.0	-777600.0
16	16	10	36	412	50.0	-1599016.0	15176.0	-777784.0
16	16	10	36	412	58.0	727793.0	-2489.0	-777829.0
16	16	10	36	412	59.0	561679.0	-6395.0	-777745.0
16	16	10	36	412	60.0	384330.0	-10118.0	-777871.0
16	16	10	36	413	61.0	202363.0	-13037.0	-777912.0
16	16	10	36	413	62.0	19848.0	-15549.0	-777839.0
16	16	10	36	413	63.0	-189256.0	-18167.0	-777861.0
16	16	10	36	413	64.0	-412691.0	-20645.0	-777628.0
16	16	10	36	414	65.0	-600504.0	-20693.0	-777623.0
16	16	10	36	453	66.0	-719561.0	-20786.0	-777487.0
16	16	10	36	453	67.0	-791299.0	-23712.0	-777738.0
16	16	10	36	453	68.0	-845884.0	-23706.0	-777422.0
16	16	10	36	454	69.0	-849844.0	-22615.0	-777536.0
16	16	10	36	454	70.0	-837891.0	-22454.0	-777317.0
16	16	10	36	454	71.0	-835982.0	-22884.0	-777534.0
16	16	10	36	454	72.0	-807238.0	-22738.0	-777355.0
16	16	10	36	455	73.0	-738554.0	-23806.0	-777409.0
16	16	10	36	455	74.0	-657389.0	-26757.0	-777314.0
16	16	10	36	455	75.0	-574021.0	-29574.0	-777484.0
16	16	10	36	455	76.0	-467104.0	-31276.0	-777531.0
16	16	10	36	456	77.0	-316432.0	-30769.0	-777497.0
16	16	10	36	456	78.0	-107241.0	-29971.0	-777687.0
16	16	10	36	456	79.0	139136.0	-29164.0	-777461.0
16	16	10	36	456	80.0	377189.0	-28839.0	-777826.0
16	16	10	36	457	81.0	588256.0	-29365.0	-777498.0
16	16	10	36	457	82.0	738243.0	-31511.0	-777847.0
16	16	10	36	457	83.0	808963.0	-32194.0	-777442.0
16	16	10	36	458	84.0	806073.0	-31105.0	-777617.0
16	16	10	36	458	85.0	741994.0	-30649.0	-777517.0
16	16	10	36	458	86.0	632181.0	-30013.0	-777752.0
16	16	10	36	458	87.0	501403.0	-29775.0	-777560.0
16	16	10	36	458	88.0	375293.0	-29332.0	-777882.0
16	16	10	36	459	89.0	278334.0	-31723.0	-777574.0
16	16	10	36	459	90.0	215734.0	-34084.0	-777829.0
16	16	10	36	459	91.0	169703.0	-34804.0	-777586.0
16	16	10	36	459	92.0	156623.0	-33576.0	-777929.0
16	16	10	36	459	93.0	166225.0	-32454.0	-777698.0
16	16	10	36	496	94.0	182283.0	-31836.0	-777947.0
16	16	10	36	496	95.0	223606.0	-31692.0	-777743.0
16	16	10	36	496	96.0	294063.0	-32067.0	-777907.0
16	16	10	36	496	97.0	400397.0	-34877.0	-777889.0
16	16	10	36	497	98.0	519198.0	-35906.0	-778064.0
16	16	10	36	497	99.0	628776.0	-34478.0	-778237.0
16	16	10	36	497	100.0	720471.0	-33935.0	-778104.0
16	16	10	36	497	101.0	771519.0	-33327.0	-778289.0
16	16	10	36	498	102.0	795588.0	-32755.0	-778102.0
16	16	10	36	498	103.0	781778.0	-32518.0	-778258.0
16	16	10	36	498	104.0	731089.0	-35087.0	-777944.0
16	16	10	36	499	105.0	651086.0	-37008.0	-778131.0
16	16	10	36	499	106.0	540568.0	-37068.0	-777877.0
16	16	10	36	499	107.0	410723.0	-34967.0	-778196.0
16	16	10	36	499	108.0	264098.0	-34180.0	-778007.0
16	16	10	36	500	109.0	108866.0	-33349.0	-778232.0
16	16	10	36	500	110.0	-39864.0	-32761.0	-778094.0
16	16	10	36	500	111.0	-169177.0	-33259.0	-778211.0
16	16	10	36	539	112.0	-271538.0	-35094.0	-778151.0
16	16	10	36	540	113.0	-349132.0	-35371.0	-778112.0
16	16	10	36	540	114.0	-385834.0	-33579.0	-778256.0
16	16	10	36	540	115.0	-391144.0	-31674.0	-777873.0
16	16	10	36	540	116.0	-357269.0	-30311.0	-778027.0
16	16	10	36	541	117.0	-291737.0	-29616.0	-777999.0
16	16	10	36	541	118.0	-194490.0	-29316.0	-778164.0
16	16	10	36	541	119.0	-72569.0	-30110.0	-777960.0
16	16	10	36	541	120.0	74890.0	-29054.0	-778264.0
16	16	10	36	542	121.0	235315.0	-27446.0	-778026.0
16	16	10	36	542	122.0	399025.0	-26208.0	-778516.0
16	16	10	36	542	123.0	543311.0	-25605.0	-778355.0
16	16	10	36	543	124.0	644706.0	-24767.0	-778679.0
16	16	10	36	543	125.0	692551.0	-23728.0	-778504.0
16	16	10	36	543	126.0	688030.0	-24081.0	-778768.0
16	16	10	36	543	127.0	644391.0	-25903.0	-778596.0
16	16	10	36	544	128.0	562939.0	-26713.0	-778747.0
16	16	10	36	544	129.0	458995.0	-27342.0	-778727.0
16	16	10	36	544	130.0	346403.0	-27853.0	-778723.0
16	16	10	36	544	131.0	223115.0	-26728.0	-778767.0
16	16	10	36	545	132.0	105639.0	-24232.0	-778614.0
16	16	10	36	583	133.0	-8886.0	-22799.0	-778866.0
16	16	10	36	583	134.0	-104691.0	-23188.0	-778581.0
16	16	10	36	583	135.0	-175096.0	-20946.0	-778715.0
16	16	10	36	584	136.0	-233451.0	-19508.0	-778409.0
16	16	10	36	584	137.0	-275303.0	-18361.0	-778789.0
16	16	10	36	584	138.0	-301831.0	-16441.0	-778549.0
16	16	10	36	584	139.0	-309726.0	-14826.0	-778809.0
16	16	10	36	585	140.0	-315084.0	-13322.0	-778576.0
16	16	10	36	585	141.0	-321956.0	-13612.0	-778711.0
16	16	10	36	585	142.0	-322384.0	-15472.0	-778495.0
16	16	10	36	586	143.0	-315478.0	-16264.0	-778531.0
16	16	10	36	586	144.0	-303741.0	-15860.0	-778432.0
16	16	10	36	586	145.0	-290631.0	-13459.0	-778286.0
16	16	10	36	586	146.0	-281202.0	-12045.0	-778251.0
16	16	10	36	587	147.0	-276692.0	-10602.0	-778287.0
16	16	10	36	587	148.0	-273804.0	-9436.0	-778343.0
16	16	10	36	587	149.0	-277410.0	-11452.0	-778222.0
16	16	10	36	587	150.0	-288122.0	-12471.0	-778283.0
16	16	10	36	588	151.0	-306180.0	-10738.0	-778037.0
16	16	10	36	588	152.0	-327986.0	-9315.0	-778186.0
16	16	10	36	588	153.0	-352366.0	-8580.0	-777937.0
16	16	10	36	588	154.0	-361131.0	-7782.0	-778284.0
16	16	10	36	589	155.0	-353341.0	-7136.0	-778065.0
16	16	10	36	589	156.0	-321914.0	-7400.0	-778241.0
16	16	10	36	626	157.0	-262636.0	-9744.0	-777932.0
16	16	10	36	626	158.0	-191565.0	-10569.0	-778069.0
16	16	10	36	627	159.0	-103378.0	-9342.0	-777879.0
16	16	10	36	627	160.0	-10704.0	-7475.0	-778127.0
16	16	10	36	627	161.0	83331.0	-6872.0	-778011.0
16	16	10	36	628	162.0	167530.0	-6461.0	-778146.0
16	16	10	36	628	163.0	239282.0	-5909.0	-778159.0
16	16	10	36	628	164.0	291598.0	-7722.0	-778021.0
16	16	10	36	628	165.0	314160.0	-9824.0	-778175.0
16	16	10	36	628	166.0	317145.0	-8858.0	-778116.0
16	16	10	36	629	167.0	299378.0	-7090.0	-778442.0
16	16	10	36	629	168.0	255786.0	-6346.0	-778221.0
16	16	10	36	629	169.0	189251.0	-5637.0	-778638.0
16	16	10	36	629	170.0	102805.0	-5489.0	-778404.0
16	16	10	36	673	171.0	9078.0	-5327.0	-778669.0
16	16	10	36	674	172.0	-90351.0	-4861.0	-778374.0
16	16	10	36	674	173.0	-191039.0	-4892.0	-778443.0
16	16	10	36	674	174.0	-291875.0	-4936.0	-778190.0
16	16	10	36	675	175.0	-384819.0	-5257.0	-778511.0
16	16	10	36	675	176.0	-452366.0	-5862.0	-778361.0
16	16	10	36	675	177.0	-488904.0	-6481.0	-778324.0
16	16	10	36	675	178.0	-499948.0	-6706.0	-778268.0
16	16	10	36	676	179.0	-494284.0	-9341.0	-778473.0
16	16	10	36	676	180.0	-489091.0	-11700.0	-778496.0
16	16	10	36	676	181.0	-497319.0	-13643.0	-778761.0
16	16	10	36	677	182.0	-526228.0	-14776.0	-778622.0
16	16	10	36	677	183.0	-564303.0	-15852.0	-778766.0
16	16	10	36	677	184.0	-609649.0	-16781.0	-778752.0
16	16	10	36	677	185.0	-657009.0	-15661.0	-778734.0
16	16	10	36	677	186.0	-705141.0	-14826.0	-778856.0
16	16	10	36	678	187.0	-741031.0	-14189.0	-778801.0
16	16	10	36	678	188.0	-757876.0	-12756.0	-778927.0
16	16	10	36	678	189.0	-746516.0	-11855.0	-778735.0
16	16	10	36	678	190.0	-703707.0	-10996.0	-778895.0
16	16	10	36	679	191.0	-636731.0	-10755.0	-778725.0
16	16	10	36	679	192.0	-550641.0	-10607.0	-778979.0
16	16	10	36	679	193.0	-441182.0	-10594.0	-778777.0
16	16	10	36	679	194.0	-317234.0	-13203.0	-779157.0
16	16	10	36	680	195.0	-171601.0	-14989.0	-778959.0
16	16	10	36	680	196.0	-25636.0	-15949.0	-779092.0
16	16	10	36	680	197.0	107455.0	-14426.0	-779044.0
16	16	10	36	681	198.0	215119.0	-13248.0	-779018.0
16	16	10	36	681	199.0	300879.0	-12549.0	-779039.0
16	16	10	36	681	200.0	376891.0	-12207.0	-778790.0
16	16	10	36	681	201.0	439105.0	-12782.0	-778831.0
16	16	10	36	719	202.0	482616.0	-14923.0	-778804.0
16	16	10	36	719	203.0	501143.0	-15251.0	-779227.0
16	16	10	36	720	204.0	500990.0	-13461.0	-778975.0
16	16	10	36	720	205.0	488804.0	-12126.0	-779222.0
16	16	10	36	720	206.0	480115.0	-11662.0	-778869.0
16	16	10	36	721	207.0	476405.0	-11346.0	-779167.0
16	16	10	36	721	208.0	482502.0	-11091.0	-778715.0
16	16	10	36	721	209.0	485990.0	-12756.0	-778922.0
16	16	10	36	721	210.0	491831.0	-14034.0	-778826.0
16	16	10	36	722	211.0	482119.0	-12987.0	-779064.0
16	16	10	36	722	212.0	458851.0	-11552.0	-778849.0
16	16	10	36	722	213.0	419449.0	-10634.0	-779123.0
16	16	10	36	722	214.0	372781.0	-10116.0	-778764.0
16	16	10	36	723	215.0	332167.0	-9575.0	-779189.0
16	16	10	36	723	216.0	298981.0	-10476.0	-778927.0
16	16	10	36	763	217.0	265696.0	-12471.0	-779203.0
16	16	10	36	763	218.0	211118.0	-13091.0	-779055.0
16	16	10	36	763	219.0	133474.0	-11376.0	-779346.0
16	16	10	36	764	220.0	32584.0	-9224.0	-779319.0
16	16	10	36	764	221.0	-87551.0	-7916.0	-779310.0
16	16	10	36	764	222.0	-218158.0	-7128.0	-779287.0
16	16	10	36	764	223.0	-349726.0	-7304.0	-779231.0
16	16	10	36	765	224.0	-462646.0	-6217.0	-779288.0
16	16	10	36	765	225.0	-565085.0	-5534.0	-779080.0
16	16	10	36	765	226.0	-649976.0	-5251.0	-779146.0
16	16	10	36	766	227.0	-710726.0	-5055.0	-778896.0
16	16	10	36	766	228.0	-746407.0	-4984.0	-779252.0
16	16	10	36	766	229.0	-754321.0	-5416.0	-779025.0
16	16	10	36	766	230.0	-730867.0	-5354.0	-779267.0
16	16	10	36	767	231.0	-683259.0	-6346.0	-779094.0
16	16	10	36	767	232.0	-605308.0	-8426.0	-779296.0
16	16	10	36	767	233.0	-497960.0	-9602.0	-779208.0
16	16	10	36	768	234.0	-368388.0	-10237.0	-779111.0
16	16	10	36	768	235.0	-227209.0	-11000.0	-779050.0
16	16	10	36	768	236.0	-85836.0	-11199.0	-778967.0
16	16	10	36	768	237.0	28661.0	-9506.0	-779077.0
16	16	10	36	769	238.0	107647.0	-7762.0	-778914.0
16	16	10	36	769	239.0	166569.0	-7837.0	-779168.0
16	16	10	36	769	240.0	213634.0	-5626.0	-778835.0
16	16	10	36	769	241.0	246255.0	-3368.0	-779102.0
16	16	10	36	770	242.0	267364.0	-2316.0	-779071.0
16	16	10	36	770	243.0	286790.0	-2404.0	-779369.0
16	16	10	36	770	244.0	298881.0	-1829.0	-778977.0
16	16	10	36	771	245.0	299354.0	-961.0	-779326.0
16	16	10	36	771	246.0	280194.0	-1486.0	-778998.0
16	16	10	36	771	247.0	248274.0	-3336.0	-779220.0
16	16	10	36	800	248.0	196756.0	-4660.0	-778946.0
16	16	10	36	801	249.0	119521.0	-4028.0	-779174.0
16	16	10	36	801	250.0	18857.0	-1637.0	-778999.0
16	16	10	36	801	251.0	-92739.0	-613.0	-779082.0
16	16	10	36	802	252.0	-191282.0	731.0	-778921.0
16	16	10	36	802	253.0	-262187.0	1079.0	-778862.0
16	16	10	36	802	254.0	-294556.0	-779.0	-778701.0
16	16	10	36	803	255.0	-287669.0	-1253.0	-778596.0
16	16	10	36	803	0.0	-242555.0	377.0	-778599.0
16	16	10	36	803	1.0	-162041.0	1529.0	-778441.0
16	16	10	36	803	2.0	-40846.0	2792.0	-778577.0
16	16	10	36	804	3.0	115661.0	3639.0	-778287.0
16	16	10	36	804	4.0	298288.0	4325.0	-778292.0
16	16	10	36	804	5.0	500119.0	3327.0	-778058.0
16	16	10	36	843	6.0	695849.0	1769.0	-778323.0
16	16	10	36	843	7.0	866548.0	1393.0	-778132.0
16	16	10	36	844	8.0	996407.0	3014.0	-778468.0
16	16	10	36	844	9.0	1083593.0	4534.0	-778337.0
16	16	10	36	844	10.0	1133333.0	5119.0	-778576.0
16	16	10	36	845	11.0	1144492.0	5834.0	-778584.0
16	16	10	36	845	12.0	1126228.0	6761.0	-778592.0
16	16	10	36	845	13.0	924703.0	4563.0	-778650.0
16	16	10	36	846	14.0	328488.0	3060.0	-778468.0
16	16	10	36	846	15.0	-687024.0	4038.0	-778511.0
16	16	10	36	846	16.0	-1774777.0	5653.0	-778052.0
16	16	10	36	847	17.0	-2573394.0	6686.0	-778043.0
16	16	10	36	847	18.0	-2877262.0	7458.0	-777722.0
16	16	10	36	847	19.0	-2644292.0	7608.0	-778200.0
16	16	10	36	847	20.0	-1986436.0	8151.0	-777893.0
16	16	10	36	848	21.0	-1080617.0	8734.0	-778212.0
16	16	10	36	848	22.0	-71798.0	8812.0	-778176.0
16	16	10	36	848	23.0	902754.0	9364.0	-778601.0
16	16	10	36	849	24.0	1689215.0	9948.0	-778339.0
16	16	10	36	849	25.0	2259820.0	10123.0	-778899.0
16	16	10	36	849	26.0	2661173.0	10630.0	-778736.0
16	16	10	36	850	27.0	2806110.0	10441.0	-779004.0
16	16	10	36	850	28.0	2571603.0	8135.0	-778767.0
16	16	10	36	850	29.0	1980217.0	6328.0	-778824.0
16	16	10	36	850	30.0	1177128.0	4896.0	-778561.0
16	16	10	36	885	31.0	312743.0	4193.0	-778584.0
16	16	10	36	886	32.0	-467007.0	4031.0	-778552.0
16	16	10	36	886	33.0	-1069961.0	4595.0	-778379.0
16	16	10	36	886	34.0	-1468808.0	6513.0	-778440.0
16	16	10	36	887	35.0	-1648290.0	6710.0	-778233.0
16	16	10	36	887	36.0	-1611236.0	7448.0	-778521.0
16	16	10	36	887	37.0	-1404436.0	8661.0	-778321.0
16	16	10	36	887	38.0	-1108204.0	9278.0	-778726.0
16	16	10	36	888	39.0	-814114.0	9486.0	-778596.0
16	16	10	36	888	40.0	-574759.0	9948.0	-778899.0
16	16	10	36	888	41.0	-423089.0	10286.0	-778872.0
16	16	10	36	888	42.0	-361621.0	10029.0	-778831.0
16	16	10	36	889	43.0	-368597.0	8485.0	-778801.0
16	16	10	36	889	44.0	-400014.0	7512.0	-778818.0
16	16	10	36	889	45.0	-413070.0	6734.0	-778927.0
16	16	10	36	889	46.0	-382071.0	7521.0	-778747.0
16	16	10	36	890	47.0	-302627.0	8641.0	-779076.0
16	16	10	36	890	48.0	-187846.0	9957.0	-778762.0
16	16	10	36	890	49.0	-67516.0	10866.0	-779026.0
16	16	10	36	932	50.0	38415.0	9346.0	-778993.0
16	16	10	36	932	51.0	120337.0	7396.0	-779456.0
16	16	10	36	932	52.0	162043.0	8394.0	-779091.0
16	16	10	36	933	53.0	150903.0	9629.0	-779237.0
16	16	10	36	933	54.0	95534.0	10272.0	-778867.0
16	16	10	36	933	55.0	28718.0	10517.0	-779216.0
16	16	10	36	933	56.0	-31753.0	10428.0	-778982.0
16	16	10	36	934	57.0	-70147.0	10628.0	-779086.0
16	16	10	36	934	58.0	-92963.0	8296.0	-778848.0
16	16	10	36	934	59.0	-108157.0	6915.0	-779046.0
16	16	10	36	935	60.0	-134789.0	6584.0	-778931.0
16	16	10	36	935	61.0	-173984.0	9018.0	-779017.0
16	16	10	36	935	62.0	-237388.0	9596.0	-779071.0
16	16	10	36	936	63.0	-316419.0	10423.0	-778926.0
16	16	10	36	936	64.0	-386856.0	10503.0	-778902.0
16	16	10	36	936	65.0	-444413.0	8679.0	-778702.0
16	16	10	36	937	66.0	-473268.0	6501.0	-778836.0
16	16	10	36	937	67.0	-468969.0	6980.0	-778504.0
16	16	10	36	937	68.0	-417844.0	8317.0	-778706.0
16	16	10	36	938	69.0	-329582.0	9233.0	-778453.0
16	16	10	36	938	70.0	-202372.0	9958.0	-778746.0
16	16	10	36	938	71.0	-49890.0	10140.0	-778516.0
16	16	10	36	938	72.0	118088.0	9586.0	-778811.0
16	16	10	36	939	73.0	291731.0	7158.0	-778736.0
16	16	10	36	976	74.0	441656.0	5225.0	-778812.0
16	16	10	36	977	75.0	570993.0	4694.0	-778852.0
16	16	10	36	977	76.0	672740.0	6918.0	-778659.0
16	16	10	36	977	77.0	741271.0	7829.0	-778634.0
16	16	10	36	978	78.0	753038.0	8804.0	-778638.0
16	16	10	36	978	79.0	715886.0	9334.0	-778554.0
16	16	10	36	978	80.0	655591.0	8131.0	-778963.0
16	16	10	36	979	81.0	588838.0	6413.0	-778805.0
16	16	10	36	979	82.0	518058.0	7260.0	-778888.0
16	16	10	36	979	83.0	443283.0	8123.0	-778777.0
16	16	10	36	979	84.0	368843.0	8578.0	-778708.0
16	16	10	36	980	85.0	299073.0	8876.0	-778756.0
16	16	10	36	980	86.0	244548.0	9165.0	-778647.0
16	16	10	36	980	87.0	215451.0	8981.0	-778707.0
16	16	10	36	981	88.0	212449.0	7004.0	-778465.0
16	16	10	36	981	89.0	223464.0	6184.0	-778651.0
16	16	10	36	981	90.0	235063.0	5971.0	-778439.0
16	16	10	36	981	91.0	241560.0	8159.0	-778731.0
16	16	10	36	982	92.0	244199.0	10332.0	-778517.0
16	16	10	36	982	93.0	244718.0	11379.0	-778697.0
16	16	10	36	982	94.0	243906.0	12399.0	-778447.0
16	16	10	37	15	95.0	232423.0	11841.0	-778608.0
16	16	10	37	15	96.0	215466.0	10394.0	-778509.0
16	16	10	37	16	97.0	188443.0	12261.0	-778686.0
16	16	10	37	16	98.0	155339.0	15178.0	-778653.0
16	16	10	37	16	99.0	119604.0	17473.0	-778551.0
16	16	10	37	17	100.0	82782.0	19675.0	-778707.0
16	16	10	37	17	101.0	44219.0	21609.0	-778490.0
16	16	10	37	17	102.0	-1301.0	23015.0	-778691.0
16	16	10	37	17	103.0	-65253.0	22465.0	-778382.0
16	16	10	37	18	104.0	-147722.0	23638.0	-778676.0
16	16	10	37	18	105.0	-231945.0	26355.0	-778390.0
16	16	10	37	18	106.0	-305942.0	30479.0	-778788.0
16	16	10	37	19	107.0	-360564.0	34456.0	-778490.0
16	16	10	37	19	108.0	-405879.0	38059.0	-778719.0
16	16	10	37	19	109.0	-458515.0	41005.0	-778369.0
16	16	10	37	19	110.0	-527690.0	42041.0	-778487.0
16	16	10	37	20	111.0	-603229.0	43081.0	-778374.0
16	16	10	37	20	112.0	-672501.0	46733.0	-778657.0
16	16	10	37	20	113.0	-734169.0	49931.0	-778342.0
16	16	10	37	20	114.0	-779261.0	52542.0	-778387.0
16	16	10	37	55	115.0	-802304.0	55116.0	-778124.0
16	16	10	37	55	116.0	-813039.0	57698.0	-778103.0
16	16	10	37	55	117.0	-821434.0	58696.0	-777987.0
16	16	10	37	56	118.0	-823205.0	58067.0	-777930.0
16	16	10	37	56	119.0	-805363.0	58764.0	-777964.0
16	16	10	37	56	120.0	-762272.0	61823.0	-777851.0
16	16	10	37	57	121.0	-684043.0	64369.0	-778200.0
16	16	10	37	57	122.0	-574542.0	65901.0	-777985.0
16	16	10	37	57	123.0	-446569.0	67469.0	-778148.0
16	16	10	37	58	124.0	-319232.0	68201.0	-777898.0
16	16	10	37	58	125.0	-196766.0	67230.0	-778034.0
16	16	10	37	58	126.0	-75426.0	65666.0	-777854.0
16	16	10	37	59	127.0	29387.0	64523.0	-778091.0
16	16	10	37	59	128.0	116094.0	64104.0	-777898.0
16	16	10	37	59	129.0	191271.0	65535.0	-778033.0
16	16	10	37	59	130.0	262683.0	67822.0	-777992.0
16	16	10	37	60	131.0	326138.0	68403.0	-778002.0
16	16	10	37	60	132.0	367408.0	68000.0	-778143.0
16	16	10	37	94	133.0	385740.0	65825.0	-777985.0
16	16	10	37	94	134.0	385574.0	64932.0	-778248.0
16	16	10	37	94	135.0	380307.0	65581.0	-777971.0
16	16	10	37	95	136.0	359102.0	65566.0	-778280.0
16	16	10	37	95	137.0	321781.0	65102.0	-777898.0
16	16	10	37	95	138.0	276357.0	64704.0	-778212.0
16	16	10	37	96	139.0	217943.0	64090.0	-777942.0
16	16	10	37	96	140.0	154031.0	60931.0	-778188.0
16	16	10	37	96	141.0	103946.0	57523.0	-777854.0
16	16	10	37	97	142.0	72631.0	55156.0	-778096.0
16	16	10	37	97	143.0	57178.0	55278.0	-777937.0
16	16	10	37	97	144.0	73226.0	54547.0	-777947.0
16	16	10	37	97	145.0	109374.0	53158.0	-777759.0
16	16	10	37	98	146.0	160220.0	51163.0	-777703.0
16	16	10	37	98	147.0	225071.0	48528.0	-777515.0
16	16	10	37	98	148.0	287172.0	43912.0	-777411.0
16	16	10	37	99	149.0	319715.0	40858.0	-777511.0
16	16	10	37	99	150.0	296651.0	39871.0	-777363.0
16	16	10	37	99	151.0	208019.0	38594.0	-777586.0
16	16	10	37	99	152.0	45509.0	36687.0	-777354.0
16	16	10	37	100	153.0	-187209.0	34153.0	-777788.0
16	16	10	37	100	154.0	-501969.0	31993.0	-777596.0
16	16	10	37	100	155.0	-942216.0	28517.0	-777632.0
16	16	10	37	133	156.0	-1570629.0	24303.0	-777335.0
16	16	10	37	134	157.0	-2299712.0	21972.0	-777574.0
16	16	10	37	134	158.0	-2690056.0	21181.0	-777425.0
16	16	10	37	134	159.0	-2535327.0	19348.0	-777565.0
16	16	10	37	135	160.0	-1924150.0	17369.0	-777630.0
16	16	10	37	135	161.0	-1057279.0	15118.0	-777663.0
16	16	10	37	135	162.0	-227235.0	12089.0	-777952.0
16	16	10	37	136	163.0	393402.0	7572.0	-777652.0
16	16	10	37	136	164.0	795834.0	5119.0	-777812.0
16	16	10	37	136	165.0	1027201.0	4479.0	-777522.0
16	16	10	37	137	166.0	1130663.0	2849.0	-777901.0
16	16	10	37	174	167.0	1188975.0	1919.0	-777557.0
16	16	10	37	175	168.0	1198122.0	26.0	-777929.0
16	16	10	37	175	169.0	1154348.0	-1601.0	-777602.0
16	16	10	37	176	170.0	1072011.0	-4380.0	-777726.0
16	16	10	37	176	171.0	926644.0	-5308.0	-777715.0
16	16	10	37	176	172.0	718292.0	-6299.0	-778083.0
16	16	10	37	176	173.0	485586.0	-7761.0	-777693.0
16	16	10	37	177	174.0	264418.0	-9180.0	-777973.0
16	16	10	37	177	175.0	87898.0	-11096.0	-777786.0
16	16	10	37	177	176.0	-10705.0	-12544.0	-778207.0
16	16	10	37	178	177.0	-42406.0	-14739.0	-778297.0
16	16	10	37	178	178.0	-42884.0	-18179.0	-778457.0
16	16	10	37	178	179.0	-48495.0	-20919.0	-778471.0
16	16	10	37	179	180.0	-92747.0	-23561.0	-778379.0
16	16	10	37	179	181.0	-172281.0	-25361.0	-778438.0
16	16	10	37	179	182.0	-277830.0	-26449.0	-778208.0
16	16	10	37	179	183.0	-417469.0	-25464.0	-778381.0
16	16	10	37	180	184.0	-577907.0	-24883.0	-778107.0
16	16	10	37	180	185.0	-689847.0	-26343.0	-778325.0
16	16	10	37	180	186.0	-691093.0	-26626.0	-778162.0
16	16	10	37	181	187.0	-549561.0	-26554.0	-778489.0
16	16	10	37	181	188.0	-244136.0	-26252.0	-778313.0
16	16	10	37	181	189.0	191818.0	-25821.0	-778487.0
16	16	10	37	182	190.0	654369.0	-25829.0	-778389.0
16	16	10	37	182	191.0	1059201.0	-25398.0	-778315.0
16	16	10	37	182	192.0	1371798.0	-26058.0	-778171.0
16	16	10	37	182	193.0	1579511.0	-28848.0	-778097.0
16	16	10	37	216	194.0	1669184.0	-30241.0	-778128.0
16	16	10	37	216	195.0	1653396.0	-30622.0	-777828.0
16	16	10	37	216	196.0	1547183.0	-29134.0	-778121.0
16	16	10	37	217	197.0	1350884.0	-27745.0	-777746.0
16	16	10	37	217	198.0	1074201.0	-26552.0	-777847.0
16	16	10	37	217	199.0	747504.0	-27168.0	-777424.0
16	16	10	37	217	200.0	426788.0	-29755.0	-777705.0
16	16	10	37	218	201.0	135144.0	-31467.0	-777542.0
16	16	10	37	218	202.0	-114240.0	-31044.0	-777851.0
16	16	10	37	218	203.0	-290102.0	-30281.0	-777581.0
16	16	10	37	219	204.0	-385764.0	-29491.0	-777923.0
16	16	10	37	219	205.0	-400083.0	-28271.0	-777663.0
16	16	10	37	219	206.0	-356109.0	-28207.0	-778023.0
16	16	10	37	219	207.0	-273600.0	-29216.0	-777784.0
16	16	10	37	220	208.0	-181779.0	-31142.0	-778109.0
16	16	10	37	220	209.0	-100396.0	-32261.0	-777993.0
16	16	10	37	220	210.0	-36668.0	-31486.0	-778223.0
16	16	10	37	220	211.0	17538.0	-30255.0	-778241.0
16	16	10	37	221	212.0	64020.0	-30392.0	-778116.0
16	16	10	37	221	213.0	95493.0	-29301.0	-778381.0
16	16	10	37	221	214.0	102961.0	-29005.0	-778281.0
16	16	10	37	222	215.0	85308.0	-31559.0	-778690.0
16	16	10	37	256	216.0	44958.0	-33441.0	-778439.0
16	16	10	37	256	217.0	-9750.0	-33231.0	-778501.0
16	16	10	37	257	218.0	-66687.0	-31059.0	-778214.0
16	16	10	37	257	219.0	-127976.0	-29659.0	-778394.0
16	16	10	37	257	220.0	-200147.0	-29229.0	-778094.0
16	16	10	37	258	221.0	-269302.0	-28610.0	-778142.0
16	16	10	37	258	222.0	-310169.0	-28869.0	-777922.0
16	16	10	37	258	223.0	-320411.0	-28073.0	-778081.0
16	16	10	37	258	224.0	-293516.0	-27059.0	-778001.0
16	16	10	37	259	225.0	-237080.0	-26574.0	-777986.0
16	16	10	37	259	226.0	-166021.0	-25921.0	-777951.0
16	16	10	37	259	227.0	-78934.0	-25154.0	-777765.0
16	16	10	37	259	228.0	29549.0	-25208.0	-777948.0
16	16	10	37	260	229.0	148444.0	-25052.0	-777586.0
16	16	10	37	260	230.0	260227.0	-26434.0	-777816.0
16	16	10	37	260	231.0	355352.0	-27506.0	-777822.0
16	16	10	37	260	232.0	433266.0	-27901.0	-778061.0
16	16	10	37	261	233.0	491900.0	-27955.0	-777831.0
16	16	10	37	261	234.0	522151.0	-27633.0	-778242.0
16	16	10	37	261	235.0	519713.0	-26573.0	-778016.0
16	16	10	37	296	236.0	475130.0	-23343.0	-778331.0
16	16	10	37	296	237.0	396304.0	-21862.0	-778055.0
16	16	10	37	297	238.0	299639.0	-21004.0	-778201.0
16	16	10	37	297	239.0	193439.0	-19132.0	-777819.0
16	16	10	37	297	240.0	100699.0	-17334.0	-778029.0
16	16	10	37	297	241.0	17969.0	-15489.0	-777836.0
16	16	10	37	298	242.0	-60700.0	-14907.0	-777988.0
16	16	10	37	298	243.0	-119611.0	-13524.0	-777771.0
16	16	10	37	298	244.0	-154742.0	-12620.0	-777760.0
16	16	10	37	298	245.0	-164994.0	-14691.0	-777735.0
16	16	10	37	299	246.0	-163812.0	-16132.0	-777639.0
16	16	10	37	299	247.0	-147279.0	-16361.0	-777689.0
16	16	10	37	299	248.0	-111669.0	-15021.0	-777560.0
16	16	10	37	299	249.0	-75319.0	-12749.0	-777780.0
16	16	10	37	300	250.0	-55120.0	-11096.0	-777561.0
16	16	10	37	300	251.0	-60294.0	-9932.0	-777884.0
16	16	10	37	300	252.0	-111511.0	-10002.0	-777632.0
16	16	10	37	342	253.0	-190148.0	-11147.0	-777791.0
16	16	10	37	342	254.0	-251422.0	-11454.0	-777499.0
16	16	10	37	343	255.0	-304374.0	-9097.0	-777754.0
16	16	10	37	343	0.0	-353975.0	-7759.0	-777539.0
16	16	10	37	343	1.0	-395969.0	-6712.0	-777792.0
16	16	10	37	344	2.0	-420742.0	-5409.0	-777636.0
16	16	10	37	344	3.0	-421510.0	-5077.0	-777696.0
16	16	10	37	344	4.0	-402773.0	-6629.0	-777865.0
16	16	10	37	345	5.0	-373271.0	-7963.0	-777626.0
16	16	10	37	345	6.0	-335964.0	-6747.0	-777773.0
16	16	10	37	345	7.0	-284089.0	-4887.0	-777526.0
16	16	10	37	346	8.0	-212146.0	-4008.0	-777880.0
16	16	10	37	346	9.0	-124564.0	-3232.0	-777735.0
16	16	10	37	346	10.0	-44681.0	-2052.0	-777849.0
16	16	10	37	347	11.0	34527.0	-2553.0	-777689.0
16	16	10	37	347	12.0	112543.0	-5186.0	-777984.0
16	16	10	37	347	13.0	186143.0	-5906.0	-777647.0
16	16	10	37	347	14.0	245076.0	-4777.0	-777991.0
16	16	10	37	348	15.0	295558.0	-3396.0	-777770.0
16	16	10	37	348	16.0	331688.0	-2721.0	-778056.0
16	16	10	37	348	17.0	344529.0	-1420.0	-777849.0
16	16	10	37	349	18.0	357364.0	-1614.0	-778113.0
16	16	10	37	349	19.0	361960.0	-3468.0	-777953.0
16	16	10	37	388	20.0	339488.0	-5597.0	-778019.0
16	16	10	37	388	21.0	303962.0	-5047.0	-777966.0
16	16	10	37	388	22.0	263376.0	-3524.0	-777933.0
16	16	10	37	389	23.0	218863.0	-3386.0	-777996.0
16	16	10	37	389	24.0	185714.0	-3266.0	-777913.0
16	16	10	37	389	25.0	164938.0	-2795.0	-778204.0
16	16	10	37	389	26.0	150013.0	-3970.0	-777964.0
16	16	10	37	390	27.0	132638.0	-6195.0	-778215.0
16	16	10	37	390	28.0	120043.0	-7319.0	-777967.0
16	16	10	37	390	29.0	100148.0	-6131.0	-778211.0
16	16	10	37	391	30.0	79633.0	-5082.0	-777901.0
16	16	10	37	391	31.0	71920.0	-4809.0	-778070.0
16	16	10	37	391	32.0	64801.0	-4832.0	-777761.0
16	16	10	37	391	33.0	58453.0	-5399.0	-777985.0
16	16	10	37	392	34.0	55026.0	-7480.0	-777784.0
16	16	10	37	392	35.0	38865.0	-9596.0	-777806.0
16	16	10	37	392	36.0	-6042.0	-8899.0	-777798.0
16	16	10	37	393	37.0	-55922.0	-7359.0	-777682.0
16	16	10	37	393	38.0	-98764.0	-7052.0	-777877.0
16	16	10	37	393	39.0	-134146.0	-7099.0	-777589.0
16	16	10	37	393	40.0	-165051.0	-7059.0	-777533.0
16	16	10	37	394	41.0	-196277.0	-8086.0	-777566.0
16	16	10	37	394	42.0	-226910.0	-10658.0	-777771.0
16	16	10	37	394	43.0	-242782.0	-11774.0	-777640.0
16	16	10	37	435	44.0	-233766.0	-10940.0	-777813.0
16	16	10	37	435	45.0	-179964.0	-9594.0	-777582.0
16	16	10	37	436	46.0	-98711.0	-9052.0	-777846.0
16	16	10	37	436	47.0	-11317.0	-8780.0	-777589.0
16	16	10	37	436	48.0	107310.0	-8455.0	-777923.0
16	16	10	37	437	49.0	269358.0	-10769.0	-777699.0
16	16	10	37	437	50.0	474728.0	-11880.0	-777933.0
16	16	10	37	437	51.0	695515.0	-11177.0	-777669.0
16	16	10	37	437	52.0	914382.0	-10277.0	-777797.0
16	16	10	37	438	53.0	1126003.0	-9747.0	-777723.0
16	16	10	37	438	54.0	1304051.0	-9009.0	-777789.0
16	16	10	37	438	55.0	1440613.0	-8400.0	-777873.0
16	16	10	37	438	56.0	1524226.0	-9759.0	-777842.0
16	16	10	37	439	57.0	1539413.0	-12186.0	-778171.0
16	16	10	37	439	58.0	1483641.0	-13514.0	-777989.0
16	16	10	37	439	59.0	1379684.0	-12140.0	-778212.0
16	16	10	37	440	60.0	1271789.0	-10913.0	-778000.0
16	16	10	37	440	61.0	1157017.0	-9936.0	-778229.0
16	16	10	37	440	62.0	1032951.0	-9519.0	-777876.0
16	16	10	37	440	63.0	918513.0	-9250.0	-778163.0
16	16	10	37	441	64.0	811213.0	-11253.0	-777875.0
16	16	10	37	441	65.0	712486.0	-13105.0	-778074.0
16	16	10	37	441	66.0	631208.0	-11989.0	-777879.0
16	16	10	37	441	67.0	571663.0	-10251.0	-777829.0
16	16	10	37	442	68.0	513767.0	-9951.0	-777865.0
16	16	10	37	442	69.0	450356.0	-9594.0	-777776.0
16	16	10	37	442	70.0	383418.0	-8873.0	-777854.0
16	16	10	37	443	71.0	297690.0	-9782.0	-777671.0
16	16	10	37	484	72.0	185755.0	-11559.0	-777852.0
16	16	10	37	485	73.0	87533.0	-12188.0	-777807.0
16	16	10	37	485	74.0	3701.0	-10607.0	-777891.0
16	16	10	37	486	75.0	-79897.0	-9163.0	-777836.0
16	16	10	37	486	76.0	-144200.0	-8068.0	-778146.0
16	16	10	37	486	77.0	-197096.0	-7142.0	-777854.0
16	16	10	37	486	78.0	-246654.0	-7247.0	-778062.0
16	16	10	37	487	79.0	-286614.0	-8726.0	-777782.0
16	16	10	37	487	80.0	-321119.0	-9775.0	-778027.0
16	16	10	37	487	81.0	-369872.0	-8627.0	-777826.0
16	16	10	37	488	82.0	-424972.0	-6788.0	-778199.0
16	16	10	37	488	83.0	-468431.0	-5767.0	-778006.0
16	16	10	37	488	84.0	-509791.0	-5185.0	-778077.0
16	16	10	37	488	85.0	-547159.0	-4493.0	-778052.0
16	16	10	37	489	86.0	-580691.0	-5151.0	-778038.0
16	16	10	37	489	87.0	-628079.0	-7131.0	-778221.0
16	16	10	37	489	88.0	-682006.0	-7826.0	-777980.0
16	16	10	37	489	89.0	-729924.0	-6287.0	-777997.0
16	16	10	37	490	90.0	-746960.0	-4741.0	-777770.0
16	16	10	37	490	91.0	-721496.0	-4207.0	-778160.0
16	16	10	37	490	92.0	-691179.0	-3279.0	-777916.0
16	16	10	37	491	93.0	-660131.0	-2602.0	-778111.0
16	16	10	37	529	94.0	-640138.0	-4247.0	-777782.0
16	16	10	37	529	95.0	-624084.0	-5521.0	-778086.0
16	16	10	37	529	96.0	-608019.0	-4253.0	-777870.0
16	16	10	37	530	97.0	-574416.0	-2702.0	-778091.0
16	16	10	37	530	98.0	-527165.0	-1974.0	-778002.0
16	16	10	37	530	99.0	-459852.0	-991.0	-778016.0
16	16	10	37	530	100.0	-376822.0	128.0	-778128.0
16	16	10	37	531	101.0	-336598.0	-668.0	-777822.0
16	16	10	37	531	102.0	-338464.0	-2754.0	-777846.0
16	16	10	37	531	103.0	-380709.0	-3059.0	-777802.0
16	16	10	37	532	104.0	-426361.0	-1287.0	-777764.0
16	16	10	37	532	105.0	-473485.0	-244.0	-777644.0
16	16	10	37	532	106.0	-516853.0	549.0	-777807.0
16	16	10	37	532	107.0	-563519.0	1350.0	-777637.0
16	16	10	37	533	108.0	-605997.0	1384.0	-777799.0
16	16	10	37	533	109.0	-631812.0	-396.0	-777581.0
16	16	10	37	533	110.0	-646287.0	-1391.0	-777756.0
16	16	10	37	534	111.0	-652043.0	-244.0	-777474.0
16	16	10	37	534	112.0	-669691.0	1209.0	-777740.0
16	16	10	37	534	113.0	-684919.0	2549.0	-777459.0
16	16	10	37	534	114.0	-689940.0	3278.0	-777612.0
16	16	10	37	535	115.0	-662535.0	3975.0	-777378.0
16	16	10	37	535	116.0	-624531.0	2972.0	-777391.0
16	16	10	37	574	117.0	-591813.0	1394.0	-777244.0
16	16	10	37	575	118.0	-570067.0	644.0	-777278.0
16	16	10	37	575	119.0	-576847.0	1746.0	-777388.0
16	16	10	37	576	120.0	-596017.0	3210.0	-777309.0
16	16	10	37	576	121.0	-624586.0	4136.0	-777391.0
16	16	10	37	576	122.0	-630585.0	4953.0	-777119.0
16	16	10	37	577	123.0	-607229.0	4667.0	-777393.0
16	16	10	37	577	124.0	-555609.0	2780.0	-777195.0
16	16	10	37	577	125.0	-490837.0	2325.0	-777568.0
16	16	10	37	577	126.0	-416179.0	3574.0	-777277.0
16	16	10	37	578	127.0	-330701.0	4742.0	-777716.0
16	16	10	37	578	128.0	-244821.0	5713.0	-777477.0
16	16	10	37	578	129.0	-147132.0	6366.0	-777714.0
16	16	10	37	579	130.0	-40987.0	6754.0	-777460.0
16	16	10	37	579	131.0	60586.0	5332.0	-777434.0
16	16	10	37	579	132.0	135420.0	3136.0	-777338.0
16	16	10	37	579	133.0	163096.0	2546.0	-777128.0
16	16	10	37	580	134.0	158243.0	4111.0	-777230.0
16	16	10	37	580	135.0	148254.0	5283.0	-777446.0
16	16	10	37	580	136.0	138399.0	5914.0	-777457.0
16	16	10	37	580	137.0	22901.0	6834.0	-777396.0
