16	14	24	46	965	54.0	-483193.0	42781.0	-5833837.0
16	14	24	46	966	55.0	-522466.0	42708.0	-5834040.0
16	14	24	46	967	56.0	-537932.0	42729.0	-5833476.0
16	14	24	46	977	57.0	-531090.0	42560.0	-5832899.0
16	14	24	46	977	58.0	-514214.0	42478.0	-5833856.0
16	14	24	46	978	59.0	-486692.0	41199.0	-5834455.0
16	14	24	46	978	60.0	-455019.0	40793.0	-5833936.0
16	14	24	46	978	61.0	-408437.0	41604.0	-5833282.0
16	14	24	47	10	62.0	-348337.0	41736.0	-5833485.0
16	14	24	47	11	63.0	-286171.0	40497.0	-5834779.0
16	14	24	47	11	64.0	-230606.0	40536.0	-5834529.0
16	14	24	47	12	65.0	-174764.0	40141.0	-5833881.0
16	14	24	47	12	66.0	-117191.0	39016.0	-5833444.0
16	14	24	47	12	67.0	-61068.0	38122.0	-5834327.0
16	14	24	47	12	68.0	-7704.0	38779.0	-5834781.0
16	14	24	47	13	69.0	41429.0	38354.0	-5834184.0
16	14	24	47	13	70.0	108138.0	36764.0	-5833630.0
16	14	24	47	13	71.0	182039.0	36305.0	-5833694.0
16	14	24	47	14	72.0	267009.0	36813.0	-5834823.0
16	14	24	47	14	73.0	361826.0	36018.0	-5834470.0
16	14	24	47	14	74.0	448531.0	34672.0	-5833871.0
16	14	24	47	15	75.0	522566.0	34527.0	-5833639.0
16	14	24	47	15	76.0	576053.0	34099.0	-5834971.0
16	14	24	47	15	77.0	608325.0	32928.0	-5834935.0
16	14	24	47	15	78.0	613639.0	31283.0	-5834364.0
16	14	24	47	34	79.0	594839.0	31173.0	-5833771.0
16	14	24	47	35	80.0	548666.0	31394.0	-5834516.0
16	14	24	47	35	81.0	484727.0	30254.0	-5835378.0
16	14	24	47	69	82.0	417480.0	28876.0	-5834854.0
16	14	24	47	92	83.0	371872.0	29702.0	-5834182.0
16	14	24	47	92	84.0	331034.0	28556.0	-5833695.0
16	14	24	47	93	85.0	293442.0	28426.0	-5834667.0
16	14	24	47	93	86.0	267471.0	28026.0	-5834902.0
16	14	24	47	93	87.0	240490.0	27229.0	-5834269.0
16	14	24	47	94	88.0	213276.0	26762.0	-5833624.0
16	14	24	47	94	89.0	175847.0	26366.0	-5834133.0
16	14	24	47	95	90.0	141701.0	26763.0	-5835156.0
16	14	24	47	95	91.0	117016.0	26591.0	-5834702.0
16	14	24	47	96	92.0	111842.0	27073.0	-5834104.0
16	14	24	47	96	93.0	120428.0	27519.0	-5834128.0
16	14	24	47	96	94.0	127703.0	28380.0	-5835414.0
16	14	24	47	97	95.0	138164.0	29313.0	-5835162.0
16	14	24	47	97	96.0	150110.0	30172.0	-5834515.0
16	14	24	47	98	110.0	-400264.0	71659.0	-5833875.0
16	14	24	47	98	111.0	-425477.0	75317.0	-5834231.0
16	14	24	47	99	112.0	-410999.0	78449.0	-5835162.0
16	14	24	47	99	113.0	-367979.0	82844.0	-5834761.0
16	14	24	47	99	114.0	-321907.0	87059.0	-5834085.0
16	14	24	47	100	115.0	-280394.0	91711.0	-5833712.0
16	14	24	47	100	116.0	-237659.0	96048.0	-5834828.0
16	14	24	47	124	117.0	-190178.0	99824.0	-5835254.0
16	14	24	47	125	118.0	-131959.0	104117.0	-5834548.0
16	14	24	47	126	119.0	-72839.0	108881.0	-5833997.0
16	14	24	47	127	120.0	-8227.0	112718.0	-5834161.0
16	14	24	47	128	121.0	60572.0	115849.0	-5835392.0
16	14	24	47	128	122.0	127974.0	119409.0	-5834944.0
16	14	24	47	129	123.0	190221.0	122948.0	-5834374.0
16	14	24	47	130	124.0	241106.0	125784.0	-5833811.0
16	14	24	47	131	125.0	277234.0	128348.0	-5834812.0
16	14	24	47	132	126.0	314433.0	130684.0	-5835342.0
16	14	24	47	132	127.0	359936.0	133229.0	-5834808.0
16	14	24	47	133	128.0	399959.0	135719.0	-5834165.0
16	14	24	47	134	129.0	425213.0	137320.0	-5834397.0
16	14	24	47	135	130.0	411754.0	138684.0	-5835361.0
16	14	24	47	136	131.0	341314.0	140165.0	-5834944.0
16	14	24	47	136	133.0	108512.0	141636.0	-5833884.0
16	14	24	47	137	134.0	-12616.0	141216.0	-5834899.0
16	14	24	47	138	135.0	-113567.0	141579.0	-5835107.0
16	14	24	47	139	136.0	-191322.0	141783.0	-5834448.0
16	14	24	47	140	137.0	-251814.0	141294.0	-5833930.0
16	14	24	47	140	138.0	-301141.0	140158.0	-5834607.0
16	14	24	47	159	139.0	-336566.0	139625.0	-5835265.0
16	14	24	47	160	140.0	-355245.0	138486.0	-5834681.0
16	14	24	47	174	141.0	-356402.0	138222.0	-5834132.0
16	14	24	47	174	142.0	-346328.0	136599.0	-5834272.0
16	14	24	47	175	143.0	-315936.0	134839.0	-5835331.0
16	14	24	47	175	144.0	-252581.0	131877.0	-5834916.0
16	14	24	47	175	145.0	-157644.0	129219.0	-5834342.0
16	14	24	47	175	146.0	-48799.0	126879.0	-5833737.0
16	14	24	47	176	147.0	77344.0	124624.0	-5834131.0
16	14	24	47	176	148.0	203479.0	120748.0	-5834652.0
16	14	24	47	176	149.0	325973.0	117642.0	-5834184.0
16	14	24	47	176	150.0	437684.0	114682.0	-5833657.0
16	14	24	47	177	151.0	532555.0	110737.0	-5834297.0
16	14	24	47	177	152.0	582853.0	107359.0	-5834500.0
16	14	24	47	177	153.0	586011.0	103938.0	-5833972.0
16	14	24	47	177	155.0	429668.0	95764.0	-5834492.0
16	14	24	47	192	156.0	241806.0	90713.0	-5834366.0
16	14	24	47	192	157.0	-30959.0	85293.0	-5833826.0
16	14	24	47	193	158.0	-358034.0	80902.0	-5834312.0
16	14	24	47	193	159.0	-702832.0	76566.0	-5834974.0
16	14	24	47	193	160.0	-1059466.0	72029.0	-5834318.0
16	14	24	47	193	161.0	-1188179.0	67550.0	-5833766.0
16	14	24	47	210	162.0	-1004246.0	63110.0	-5833557.0
16	14	24	47	210	163.0	-640521.0	58792.0	-5834962.0
16	14	24	47	211	164.0	-332996.0	54477.0	-5834850.0
16	14	24	47	211	165.0	-40414.0	49560.0	-5834318.0
16	14	24	47	211	166.0	192168.0	45058.0	-5833670.0
16	14	24	47	211	167.0	299820.0	39923.0	-5833754.0
16	14	24	47	212	168.0	299476.0	35003.0	-5834977.0
16	14	24	47	212	169.0	231870.0	30452.0	-5834771.0
16	14	24	47	212	170.0	95963.0	26111.0	-5834139.0
16	14	24	47	212	171.0	-77856.0	21637.0	-5833967.0
16	14	24	47	213	172.0	-270412.0	16951.0	-5835302.0
16	14	24	47	213	173.0	-431513.0	12038.0	-5835382.0
16	14	24	47	228	174.0	-531969.0	8188.0	-5834687.0
16	14	24	47	228	175.0	-558659.0	4313.0	-5834169.0
16	14	24	47	228	176.0	-537153.0	208.0	-5834745.0
16	14	24	47	229	178.0	-373234.0	-7117.0	-5834933.0
16	14	24	47	229	179.0	-287965.0	-12017.0	-5834364.0
16	14	24	47	229	180.0	-193559.0	-15704.0	-5833812.0
16	14	24	47	229	181.0	-89113.0	-18977.0	-5834409.0
16	14	24	47	230	182.0	5887.0	-22064.0	-5834555.0
16	14	24	47	230	183.0	54696.0	-25205.0	-5834026.0
16	14	24	47	296	184.0	53031.0	-28343.0	-5833860.0
16	14	24	47	297	185.0	14357.0	-31141.0	-5835064.0
16	14	24	47	314	186.0	-48552.0	-33138.0	-5834775.0
16	14	24	47	315	187.0	-107167.0	-35596.0	-5834212.0
16	14	24	47	315	188.0	-154044.0	-37714.0	-5833721.0
16	14	24	47	315	189.0	-176511.0	-39866.0	-5834622.0
16	14	24	47	316	190.0	-171141.0	-42291.0	-5834708.0
16	14	24	47	316	191.0	-137209.0	-44149.0	-5834179.0
16	14	24	47	317	192.0	-71109.0	-46144.0	-5833946.0
16	14	24	47	317	193.0	17977.0	-47725.0	-5835203.0
16	14	24	47	318	194.0	121551.0	-49565.0	-5835027.0
16	14	24	47	318	195.0	224683.0	-50781.0	-5834449.0
16	14	24	47	319	196.0	320220.0	-52432.0	-5833761.0
16	14	24	47	319	197.0	406409.0	-53702.0	-5834197.0
16	14	24	47	320	198.0	478918.0	-55139.0	-5835284.0
16	14	24	47	320	223.0	-288017.0	-58887.0	-5834556.0
16	14	24	47	320	224.0	-297445.0	-59731.0	-5836092.0
16	14	24	47	321	225.0	-300754.0	-59665.0	-5836074.0
16	14	24	47	321	226.0	-293377.0	-58776.0	-5835432.0
16	14	24	47	322	227.0	-277950.0	-58347.0	-5834791.0
16	14	24	47	322	228.0	-269365.0	-57988.0	-5834975.0
16	14	24	47	345	229.0	-258503.0	-57649.0	-5836097.0
16	14	24	47	345	230.0	-237159.0	-56893.0	-5835678.0
16	14	24	47	346	231.0	-207956.0	-55247.0	-5835053.0
16	14	24	47	366	232.0	-171369.0	-54687.0	-5834529.0
16	14	24	47	366	233.0	-123567.0	-55122.0	-5835282.0
16	14	24	47	367	234.0	-64259.0	-54964.0	-5835945.0
16	14	24	47	367	235.0	5621.0	-54914.0	-5835371.0
16	14	24	47	367	236.0	77814.0	-54992.0	-5834787.0
16	14	24	47	368	237.0	159691.0	-54541.0	-5835304.0
16	14	24	47	368	238.0	254136.0	-53711.0	-5836117.0
16	14	24	47	368	239.0	357966.0	-53279.0	-5835592.0
16	14	24	47	368	240.0	451254.0	-53362.0	-5835004.0
16	14	24	47	369	241.0	519564.0	-53183.0	-5834914.0
16	14	24	47	369	242.0	565218.0	-52454.0	-5836130.0
16	14	24	47	369	243.0	583540.0	-51691.0	-5835863.0
16	14	24	47	369	245.0	555154.0	-51084.0	-5834624.0
16	14	24	47	370	246.0	521418.0	-51307.0	-5835376.0
16	14	24	47	370	247.0	485532.0	-51657.0	-5836211.0
16	14	24	47	370	248.0	450365.0	-50876.0	-5835697.0
16	14	24	47	385	249.0	421313.0	-49847.0	-5835031.0
16	14	24	47	385	250.0	400423.0	-49280.0	-5834886.0
16	14	24	47	385	251.0	390623.0	-48954.0	-5836104.0
16	14	24	47	403	252.0	389152.0	-48597.0	-5836055.0
16	14	24	47	404	253.0	400898.0	-46997.0	-5835452.0
16	14	24	47	404	254.0	418527.0	-46399.0	-5835076.0
16	14	24	47	404	255.0	432952.0	-46263.0	-5836061.0
16	14	24	47	404	0.0	436819.0	-45278.0	-5836374.0
16	14	24	47	405	1.0	434024.0	-45137.0	-5835696.0
16	14	24	47	405	2.0	420819.0	-45297.0	-5835102.0
16	14	24	47	405	3.0	401695.0	-45422.0	-5835206.0
16	14	24	47	405	4.0	388659.0	-45325.0	-5836346.0
16	14	24	47	406	5.0	379375.0	-44852.0	-5835881.0
16	14	24	47	406	6.0	376068.0	-44478.0	-5835322.0
16	14	24	47	406	7.0	371088.0	-43962.0	-5834826.0
16	14	24	47	406	11.0	294525.0	-42991.0	-5835132.0
16	14	24	47	407	12.0	268099.0	-43023.0	-5835747.0
16	14	24	47	407	13.0	254806.0	-43938.0	-5836565.0
16	14	24	47	407	14.0	250526.0	-43780.0	-5836101.0
16	14	24	47	407	15.0	251002.0	-43796.0	-5835440.0
16	14	24	47	408	16.0	252838.0	-44062.0	-5835308.0
16	14	24	47	408	17.0	243671.0	-43922.0	-5836457.0
16	14	24	47	429	18.0	221927.0	-43520.0	-5836382.0
16	14	24	47	442	19.0	201297.0	-43117.0	-5835659.0
16	14	24	47	443	20.0	200356.0	-41798.0	-5835146.0
16	14	24	47	443	21.0	197144.0	-42149.0	-5835799.0
16	14	24	47	443	22.0	167054.0	-41704.0	-5836458.0
16	14	24	47	443	23.0	112851.0	-41672.0	-5835831.0
16	14	24	47	444	24.0	40218.0	-41461.0	-5835262.0
16	14	24	47	444	25.0	-55354.0	-41125.0	-5835048.0
16	14	24	47	444	26.0	-126197.0	-40847.0	-5836532.0
16	14	24	47	444	27.0	-151924.0	-40485.0	-5836437.0
16	14	24	47	445	28.0	-180326.0	-40631.0	-5835884.0
16	14	24	47	445	29.0	-223444.0	-40538.0	-5835361.0
16	14	24	47	445	30.0	-264271.0	-40662.0	-5836007.0
16	14	24	47	445	31.0	-310906.0	-40850.0	-5835861.0
16	14	24	47	446	32.0	-354296.0	-40530.0	-5835275.0
16	14	24	47	446	34.0	-311690.0	-39687.0	-5835776.0
16	14	24	47	446	35.0	-252924.0	-40144.0	-5835399.0
16	14	24	47	446	36.0	-200016.0	-39884.0	-5834817.0
16	14	24	47	447	37.0	-162157.0	-39539.0	-5834692.0
16	14	24	47	447	38.0	-145618.0	-38736.0	-5836090.0
16	14	24	47	447	39.0	-142240.0	-38144.0	-5835847.0
16	14	24	47	475	40.0	-157556.0	-38067.0	-5835273.0
16	14	24	47	491	41.0	-177426.0	-37702.0	-5834696.0
16	14	24	47	492	42.0	-189456.0	-36588.0	-5835601.0
16	14	24	47	492	43.0	-190237.0	-36304.0	-5835909.0
16	14	24	47	492	44.0	-186134.0	-35626.0	-5835360.0
16	14	24	47	493	45.0	-186081.0	-35221.0	-5834694.0
16	14	24	47	493	46.0	-181303.0	-34855.0	-5835077.0
16	14	24	47	493	47.0	-172594.0	-34339.0	-5836074.0
16	14	24	47	494	48.0	-151784.0	-34253.0	-5835681.0
16	14	24	47	494	49.0	-124802.0	-34272.0	-5835002.0
16	14	24	47	494	50.0	-98476.0	-34417.0	-5834977.0
16	14	24	47	495	51.0	-74386.0	-34636.0	-5835951.0
16	14	24	47	495	52.0	-58776.0	-35141.0	-5835696.0
16	14	24	47	495	53.0	-45839.0	-35995.0	-5835016.0
16	14	24	47	496	54.0	-34203.0	-35858.0	-5834465.0
16	14	24	47	496	56.0	-16081.0	-36882.0	-5835667.0
16	14	24	47	497	57.0	-16126.0	-37739.0	-5835124.0
16	14	24	47	497	58.0	-18004.0	-39066.0	-5834576.0
16	14	24	47	497	59.0	-21317.0	-39624.0	-5834999.0
16	14	24	47	498	60.0	-25639.0	-39909.0	-5836064.0
16	14	24	47	498	61.0	-36066.0	-40542.0	-5835522.0
16	14	24	47	499	62.0	-54190.0	-41119.0	-5834943.0
16	14	24	47	523	63.0	-73689.0	-41406.0	-5834430.0
16	14	24	47	524	64.0	-97415.0	-41564.0	-5835142.0
16	14	24	47	524	65.0	-111449.0	-41085.0	-5835105.0
16	14	24	47	525	66.0	-116455.0	-41101.0	-5834532.0
16	14	24	47	526	67.0	-126362.0	-41225.0	-5834067.0
16	14	24	47	526	68.0	-135493.0	-41652.0	-5835220.0
16	14	24	47	527	69.0	-150254.0	-42084.0	-5835227.0
16	14	24	47	528	70.0	-169091.0	-42402.0	-5834655.0
16	14	24	47	529	71.0	-188811.0	-42164.0	-5834167.0
16	14	24	47	541	72.0	-211712.0	-41812.0	-5835342.0
16	14	24	47	541	73.0	-232865.0	-42009.0	-5835490.0
16	14	24	47	542	74.0	-252711.0	-41885.0	-5834926.0
16	14	24	47	542	75.0	-266916.0	-41167.0	-5834283.0
16	14	24	47	542	76.0	-277522.0	-41172.0	-5834791.0
16	14	24	47	542	77.0	-273949.0	-41037.0	-5835725.0
16	14	24	47	543	79.0	-201426.0	-40449.0	-5834662.0
16	14	24	47	543	80.0	-149389.0	-41131.0	-5834561.0
16	14	24	47	543	81.0	-93728.0	-41423.0	-5835849.0
16	14	24	47	543	82.0	-30469.0	-40836.0	-5835806.0
16	14	24	47	544	83.0	46037.0	-39856.0	-5835114.0
16	14	24	47	544	84.0	124052.0	-38751.0	-5834534.0
16	14	24	47	564	85.0	195171.0	-38559.0	-5834877.0
16	14	24	47	578	86.0	248633.0	-38082.0	-5835981.0
16	14	24	47	579	87.0	280508.0	-36217.0	-5835517.0
16	14	24	47	579	88.0	304197.0	-36012.0	-5834937.0
16	14	24	47	579	89.0	330987.0	-35157.0	-5834785.0
16	14	24	47	580	90.0	359644.0	-34427.0	-5836216.0
16	14	24	47	580	91.0	402423.0	-33711.0	-5836154.0
16	14	24	47	580	92.0	451320.0	-32996.0	-5835572.0
16	14	24	47	580	93.0	491010.0	-33003.0	-5835005.0
16	14	24	47	581	94.0	512076.0	-32626.0	-5835424.0
16	14	24	47	581	95.0	506507.0	-31942.0	-5835751.0
16	14	24	47	581	96.0	487463.0	-30986.0	-5835226.0
16	14	24	47	582	97.0	462612.0	-30432.0	-5834674.0
16	14	24	47	582	98.0	442106.0	-29751.0	-5835795.0
16	14	24	47	582	99.0	418196.0	-29436.0	-5836251.0
16	14	24	47	582	101.0	354925.0	-28839.0	-5835033.0
16	14	24	47	583	102.0	308801.0	-28556.0	-5835135.0
16	14	24	47	583	103.0	256014.0	-29055.0	-5836216.0
16	14	24	47	583	104.0	194156.0	-28649.0	-5835896.0
16	14	24	47	583	105.0	134466.0	-28436.0	-5835249.0
16	14	24	47	584	106.0	89901.0	-28600.0	-5834992.0
16	14	24	47	584	107.0	69041.0	-27789.0	-5836151.0
16	14	24	47	610	108.0	60627.0	-27072.0	-5836148.0
16	14	24	47	612	109.0	66059.0	-26155.0	-5835499.0
16	14	24	47	613	110.0	82638.0	-24721.0	-5835066.0
16	14	24	47	614	111.0	98646.0	-24234.0	-5836021.0
16	14	24	47	615	112.0	117604.0	-23993.0	-5836340.0
16	14	24	47	616	113.0	140383.0	-23405.0	-5835717.0
16	14	24	47	617	114.0	155944.0	-22930.0	-5835125.0
16	14	24	47	617	115.0	165048.0	-22669.0	-5834964.0
16	14	24	47	618	116.0	169989.0	-21907.0	-5836265.0
16	14	24	47	619	117.0	156204.0	-21528.0	-5836046.0
16	14	24	47	620	118.0	128030.0	-21074.0	-5835411.0
16	14	24	47	621	119.0	82778.0	-20202.0	-5834791.0
16	14	24	47	622	120.0	44084.0	-19912.0	-5835224.0
16	14	24	47	623	121.0	15921.0	-19943.0	-5835782.0
16	14	24	47	624	122.0	-3044.0	-19634.0	-5835291.0
16	14	24	47	625	124.0	-13021.0	-17789.0	-5836944.0
16	14	24	47	626	125.0	-10179.0	-18074.0	-5836559.0
16	14	24	47	627	126.0	-9351.0	-17888.0	-5835982.0
16	14	24	47	628	127.0	-8469.0	-17155.0	-5835374.0
16	14	24	47	629	128.0	3649.0	-16564.0	-5835777.0
16	14	24	47	629	129.0	23484.0	-16539.0	-5836631.0
16	14	24	47	654	130.0	43759.0	-15811.0	-5836161.0
16	14	24	47	654	131.0	55225.0	-15017.0	-5835459.0
16	14	24	47	654	132.0	58168.0	-13159.0	-5835091.0
16	14	24	47	676	133.0	45188.0	-12236.0	-5836101.0
16	14	24	47	676	134.0	16969.0	-11954.0	-5836122.0
16	14	24	47	677	135.0	-15091.0	-11320.0	-5835466.0
16	14	24	47	677	136.0	-45381.0	-10386.0	-5834922.0
16	14	24	47	677	137.0	-69723.0	-9700.0	-5835713.0
16	14	24	47	678	138.0	-96702.0	-9324.0	-5836402.0
16	14	24	47	678	139.0	-126677.0	-8936.0	-5835837.0
16	14	24	47	678	140.0	-157842.0	-8784.0	-5835272.0
16	14	24	47	678	141.0	-190211.0	-7844.0	-5835789.0
16	14	24	47	679	142.0	-221995.0	-7149.0	-5836657.0
16	14	24	47	679	143.0	-246021.0	-6156.0	-5836137.0
16	14	24	47	679	144.0	-256211.0	-4626.0	-5835537.0
16	14	24	47	680	146.0	-250436.0	-3747.0	-5836566.0
16	14	24	47	680	147.0	-231797.0	-3709.0	-5836557.0
16	14	24	47	680	148.0	-201623.0	-4437.0	-5835892.0
16	14	24	47	680	149.0	-178011.0	-4106.0	-5835310.0
16	14	24	47	681	150.0	-152106.0	-3982.0	-5835261.0
16	14	24	47	681	151.0	-136932.0	-3636.0	-5835983.0
16	14	24	47	681	152.0	-134860.0	-3392.0	-5835530.0
16	14	24	47	700	153.0	-142602.0	-3212.0	-5835016.0
16	14	24	47	718	154.0	-156692.0	-2049.0	-5835989.0
16	14	24	47	718	155.0	-169562.0	-971.0	-5836591.0
16	14	24	47	718	156.0	-185069.0	-526.0	-5835994.0
16	14	24	47	718	157.0	-199195.0	-273.0	-5835425.0
16	14	24	47	719	158.0	-209579.0	2.0	-5835760.0
16	14	24	47	719	159.0	-216609.0	295.0	-5836169.0
16	14	24	47	719	160.0	-216602.0	803.0	-5835639.0
16	14	24	47	719	161.0	-214695.0	1216.0	-5835104.0
16	14	24	47	720	162.0	-205287.0	1811.0	-5835862.0
16	14	24	47	720	163.0	-191490.0	2072.0	-5836113.0
16	14	24	47	720	164.0	-177718.0	2407.0	-5835562.0
16	14	24	47	720	165.0	-164414.0	3274.0	-5835032.0
16	14	24	47	720	166.0	-133629.0	3425.0	-5836139.0
16	14	24	47	721	167.0	-93161.0	3548.0	-5836611.0
16	14	24	47	721	169.0	-21642.0	4443.0	-5835390.0
16	14	24	47	721	170.0	8610.0	3180.0	-5835512.0
16	14	24	47	721	171.0	26818.0	2931.0	-5836635.0
16	14	24	47	722	172.0	33216.0	3563.0	-5836316.0
16	14	24	47	722	173.0	41361.0	3419.0	-5835641.0
16	14	24	47	722	174.0	53217.0	3797.0	-5835461.0
16	14	24	47	744	175.0	49544.0	4003.0	-5836592.0
16	14	24	47	760	176.0	38856.0	4362.0	-5836489.0
16	14	24	47	760	177.0	23260.0	5037.0	-5835805.0
16	14	24	47	760	178.0	781.0	4224.0	-5835230.0
16	14	24	47	761	179.0	-29914.0	2839.0	-5835706.0
16	14	24	47	761	180.0	-48951.0	2278.0	-5836564.0
16	14	24	47	761	181.0	-44794.0	3016.0	-5836012.0
16	14	24	47	761	182.0	-29612.0	3749.0	-5835395.0
16	14	24	47	762	183.0	-3433.0	5223.0	-5835197.0
16	14	24	47	762	184.0	30122.0	5603.0	-5836465.0
16	14	24	47	762	185.0	51334.0	6809.0	-5836378.0
16	14	24	47	762	186.0	47044.0	7735.0	-5835773.0
16	14	24	47	763	187.0	17231.0	7998.0	-5835274.0
16	14	24	47	763	188.0	-24067.0	8067.0	-5836176.0
16	14	24	47	763	189.0	-69450.0	8259.0	-5836705.0
16	14	24	47	763	191.0	-114775.0	8172.0	-5835485.0
16	14	24	47	764	192.0	-87012.0	8172.0	-5836029.0
16	14	24	47	764	193.0	-25032.0	7590.0	-5836876.0
16	14	24	47	764	194.0	69187.0	7514.0	-5836346.0
16	14	24	47	764	195.0	200961.0	8136.0	-5835719.0
16	14	24	47	765	196.0	371778.0	8631.0	-5835266.0
16	14	24	47	778	197.0	559768.0	8894.0	-5836424.0
16	14	24	47	798	198.0	738802.0	8809.0	-5836759.0
16	14	24	47	798	199.0	869504.0	9131.0	-5836197.0
16	14	24	47	798	200.0	888428.0	10028.0	-5835559.0
16	14	24	47	799	201.0	751566.0	10703.0	-5835886.0
16	14	24	47	799	202.0	485769.0	10392.0	-5836881.0
16	14	24	47	799	203.0	159708.0	10677.0	-5836455.0
16	14	24	47	799	204.0	-131298.0	10831.0	-5835818.0
16	14	24	47	800	205.0	-316228.0	10988.0	-5835868.0
16	14	24	47	800	206.0	-391699.0	11126.0	-5837214.0
16	14	24	47	800	207.0	-356096.0	11351.0	-5836961.0
16	14	24	47	800	208.0	-187982.0	11188.0	-5836294.0
16	14	24	47	800	209.0	98478.0	11081.0	-5836027.0
16	14	24	47	801	210.0	468239.0	11211.0	-5837232.0
16	14	24	47	801	211.0	877438.0	11298.0	-5837385.0
16	14	24	47	801	212.0	1276953.0	11495.0	-5836732.0
16	14	24	47	815	214.0	1778948.0	12002.0	-5835940.0
16	14	24	47	815	215.0	1794414.0	11712.0	-5836796.0
16	14	24	47	815	216.0	1605353.0	11276.0	-5836474.0
16	14	24	47	815	217.0	1216805.0	10931.0	-5835839.0
16	14	24	47	816	218.0	689884.0	11145.0	-5835815.0
16	14	24	47	816	219.0	115656.0	11323.0	-5837252.0
16	14	24	47	834	220.0	-433907.0	11790.0	-5836966.0
16	14	24	47	848	221.0	-903607.0	12084.0	-5836332.0
16	14	24	47	849	222.0	-1261087.0	13451.0	-5835977.0
16	14	24	47	849	223.0	-1510236.0	13665.0	-5837167.0
16	14	24	47	849	224.0	-1653557.0	14194.0	-5837121.0
16	14	24	47	849	225.0	-1704482.0	15172.0	-5836532.0
16	14	24	47	850	226.0	-1668549.0	15970.0	-5835903.0
16	14	24	47	850	227.0	-1524351.0	17101.0	-5836464.0
16	14	24	47	850	228.0	-1240371.0	17706.0	-5837222.0
16	14	24	47	850	229.0	-862884.0	18460.0	-5836754.0
16	14	24	47	851	230.0	-463386.0	18678.0	-5836099.0
16	14	24	47	851	231.0	-121439.0	18968.0	-5836129.0
16	14	24	47	851	232.0	107154.0	19274.0	-5837172.0
16	14	24	47	852	233.0	217270.0	20188.0	-5836891.0
16	14	24	47	852	234.0	222609.0	20966.0	-5836211.0
16	14	24	47	852	236.0	70321.0	22334.0	-5837202.0
16	14	24	47	852	237.0	-19924.0	22448.0	-5837379.0
16	14	24	47	853	238.0	-91379.0	21827.0	-5836717.0
16	14	24	47	853	239.0	-148452.0	22394.0	-5836191.0
16	14	24	47	853	240.0	-202805.0	22973.0	-5836579.0
16	14	24	47	853	241.0	-256582.0	23688.0	-5837560.0
16	14	24	47	879	242.0	-305585.0	24128.0	-5837009.0
16	14	24	47	892	243.0	-353541.0	24964.0	-5836422.0
16	14	24	47	892	244.0	-404977.0	26291.0	-5835834.0
16	14	24	47	893	245.0	-454601.0	26944.0	-5836741.0
16	14	24	47	893	246.0	-498533.0	27741.0	-5837016.0
16	14	24	47	893	247.0	-529900.0	28342.0	-5836481.0
16	14	24	47	894	248.0	-546720.0	29111.0	-5835804.0
16	14	24	47	894	249.0	-535820.0	29729.0	-5836065.0
16	14	24	47	894	250.0	-496752.0	29180.0	-5837131.0
16	14	24	47	894	251.0	-441608.0	29818.0	-5836781.0
16	14	24	47	895	252.0	-382459.0	30203.0	-5836125.0
16	14	24	47	895	253.0	-329737.0	30072.0	-5836086.0
16	14	24	47	913	254.0	-285136.0	30334.0	-5837290.0
16	14	24	47	913	255.0	-258387.0	30349.0	-5837153.0
16	14	24	47	914	0.0	-250557.0	30219.0	-5836467.0
16	14	24	47	914	3.0	-303357.0	30973.0	-5837321.0
16	14	24	47	914	4.0	-299322.0	30226.0	-5836669.0
16	14	24	47	914	5.0	-271359.0	30291.0	-5836119.0
16	14	24	47	915	6.0	-221812.0	30401.0	-5836291.0
16	14	24	47	915	7.0	-151331.0	30519.0	-5837484.0
16	14	24	47	915	8.0	-61664.0	30906.0	-5837061.0
16	14	24	47	930	9.0	40190.0	30960.0	-5836531.0
16	14	24	47	931	10.0	146272.0	31822.0	-5836036.0
16	14	24	47	931	11.0	255408.0	33692.0	-5836776.0
16	14	24	47	931	12.0	363629.0	34255.0	-5836772.0
16	14	24	47	932	13.0	460021.0	35119.0	-5836241.0
16	14	24	47	932	14.0	545066.0	36093.0	-5836051.0
16	14	24	47	933	15.0	607406.0	37288.0	-5837547.0
16	14	24	47	933	16.0	656624.0	37678.0	-5837426.0
16	14	24	47	933	17.0	678979.0	38127.0	-5836880.0
16	14	24	47	934	18.0	679092.0	38381.0	-5836226.0
16	14	24	47	934	19.0	661267.0	38791.0	-5836677.0
16	14	24	47	934	20.0	625232.0	39050.0	-5837561.0
16	14	24	47	934	21.0	570696.0	39578.0	-5837118.0
16	14	24	47	935	22.0	497151.0	39847.0	-5836456.0
16	14	24	47	935	23.0	415354.0	40417.0	-5836159.0
16	14	24	47	947	25.0	224028.0	41632.0	-5837486.0
16	14	24	47	947	26.0	119441.0	42233.0	-5836822.0
16	14	24	47	948	27.0	28881.0	42779.0	-5836416.0
16	14	24	47	948	28.0	-35851.0	44068.0	-5837367.0
16	14	24	47	948	29.0	-103394.0	45206.0	-5837671.0
16	14	24	47	948	30.0	-172887.0	46592.0	-5837039.0
16	14	24	48	16	31.0	-233287.0	48356.0	-5836504.0
16	14	24	48	17	32.0	-267148.0	50408.0	-5837091.0
16	14	24	48	18	33.0	-276809.0	53818.0	-5838084.0
16	14	24	48	30	34.0	-269994.0	56990.0	-5837518.0
16	14	24	48	31	35.0	-246439.0	59943.0	-5836885.0
16	14	24	48	31	36.0	-198968.0	62729.0	-5836301.0
16	14	24	48	32	37.0	-106092.0	65873.0	-5836541.0
16	14	24	48	32	38.0	19666.0	69228.0	-5837023.0
16	14	24	48	33	39.0	135652.0	72829.0	-5836484.0
16	14	24	48	33	40.0	212594.0	76181.0	-5835941.0
16	14	24	48	34	41.0	251676.0	79761.0	-5836581.0
16	14	24	48	34	42.0	251958.0	83279.0	-5836748.0
16	14	24	48	35	43.0	239473.0	87090.0	-5836204.0
16	14	24	48	35	44.0	213976.0	90694.0	-5836562.0
16	14	24	48	36	45.0	174674.0	93526.0	-5837552.0
16	14	24	48	36	70.0	-171348.0	163673.0	-5836985.0
16	14	24	48	37	71.0	-113939.0	162136.0	-5836461.0
16	14	24	48	37	72.0	-25441.0	161239.0	-5835812.0
16	14	24	48	37	73.0	102978.0	160826.0	-5836087.0
16	14	24	48	38	74.0	231636.0	159459.0	-5836904.0
16	14	24	48	60	75.0	331851.0	157346.0	-5836491.0
16	14	24	48	61	76.0	398043.0	155399.0	-5835861.0
16	14	24	48	61	77.0	430187.0	153943.0	-5835683.0
16	14	24	48	84	78.0	398109.0	152616.0	-5836652.0
16	14	24	48	84	79.0	327143.0	150876.0	-5836496.0
16	14	24	48	84	80.0	331624.0	148538.0	-5835838.0
16	14	24	48	85	81.0	377379.0	145621.0	-5835379.0
16	14	24	48	85	82.0	436329.0	142744.0	-5836275.0
16	14	24	48	85	83.0	467651.0	140113.0	-5836742.0
16	14	24	48	85	84.0	490978.0	136994.0	-5836073.0
16	14	24	48	86	85.0	466986.0	133558.0	-5835528.0
16	14	24	48	86	86.0	393826.0	130654.0	-5835154.0
16	14	24	48	86	87.0	311071.0	126601.0	-5836017.0
16	14	24	48	86	88.0	212654.0	122857.0	-5835783.0
16	14	24	48	87	89.0	131098.0	118989.0	-5835206.0
16	14	24	48	104	90.0	7191.0	114605.0	-5835039.0
16	14	24	48	127	92.0	-412474.0	105778.0	-5835336.0
16	14	24	48	127	93.0	-687189.0	100637.0	-5834910.0
16	14	24	48	128	94.0	-984082.0	94124.0	-5836087.0
16	14	24	48	128	95.0	-1256089.0	88952.0	-5836299.0
16	14	24	48	128	96.0	-1235639.0	83764.0	-5835705.0
16	14	24	48	129	97.0	-881736.0	78379.0	-5835126.0
16	14	24	48	129	98.0	-384961.0	73639.0	-5835540.0
16	14	24	48	129	99.0	33515.0	68484.0	-5836777.0
16	14	24	48	130	100.0	420068.0	63442.0	-5836346.0
16	14	24	48	130	101.0	695270.0	58193.0	-5835808.0
16	14	24	48	130	102.0	806463.0	52459.0	-5835194.0
16	14	24	48	130	103.0	752992.0	47150.0	-5835594.0
16	14	24	48	131	104.0	606214.0	41781.0	-5836399.0
16	14	24	48	131	105.0	409466.0	36658.0	-5835934.0
16	14	24	48	132	115.0	83439.0	-11579.0	-5835771.0
16	14	24	48	132	116.0	265178.0	-16323.0	-5835567.0
16	14	24	48	132	117.0	393218.0	-21009.0	-5836435.0
16	14	24	48	133	118.0	485249.0	-25162.0	-5836082.0
16	14	24	48	133	119.0	569228.0	-29215.0	-5835487.0
16	14	24	48	133	120.0	616659.0	-33327.0	-5835410.0
16	14	24	48	149	121.0	596319.0	-37072.0	-5836076.0
16	14	24	48	171	122.0	620861.0	-40378.0	-5835624.0
16	14	24	48	171	123.0	683834.0	-42287.0	-5835209.0
16	14	24	48	171	124.0	735461.0	-44915.0	-5836204.0
16	14	24	48	172	125.0	774526.0	-47761.0	-5836467.0
16	14	24	48	172	126.0	770913.0	-51025.0	-5835854.0
16	14	24	48	172	127.0	717331.0	-54226.0	-5835222.0
16	14	24	48	172	128.0	624401.0	-57752.0	-5835291.0
16	14	24	48	172	129.0	514554.0	-60977.0	-5836466.0
16	14	24	48	173	130.0	417094.0	-64006.0	-5836096.0
16	14	24	48	173	131.0	319651.0	-66397.0	-5835456.0
16	14	24	48	173	132.0	233241.0	-69442.0	-5834927.0
16	14	24	48	173	133.0	142952.0	-72333.0	-5835906.0
16	14	24	48	174	134.0	60077.0	-74632.0	-5836294.0
16	14	24	48	174	135.0	-20668.0	-76531.0	-5835710.0
16	14	24	48	174	137.0	-99946.0	-80546.0	-5835476.0
16	14	24	48	175	138.0	-90334.0	-83241.0	-5836342.0
16	14	24	48	175	139.0	-46141.0	-86475.0	-5835918.0
16	14	24	48	175	140.0	-23574.0	-88477.0	-5835293.0
16	14	24	48	175	141.0	-4053.0	-90142.0	-5835427.0
16	14	24	48	176	142.0	-20925.0	-91438.0	-5836635.0
16	14	24	48	176	143.0	-36794.0	-93294.0	-5836356.0
16	14	24	48	195	144.0	-60089.0	-94350.0	-5835722.0
16	14	24	48	217	145.0	-118876.0	-95202.0	-5835409.0
16	14	24	48	217	146.0	-187964.0	-94906.0	-5836442.0
16	14	24	48	217	147.0	-258906.0	-95863.0	-5836511.0
16	14	24	48	218	148.0	-320419.0	-96706.0	-5835832.0
16	14	24	48	218	149.0	-359735.0	-97160.0	-5835295.0
16	14	24	48	218	150.0	-400143.0	-97741.0	-5835107.0
16	14	24	48	219	151.0	-405302.0	-98744.0	-5836004.0
16	14	24	48	219	152.0	-408531.0	-99422.0	-5835676.0
16	14	24	48	219	153.0	-383350.0	-100168.0	-5835112.0
16	14	24	48	219	154.0	-356640.0	-100699.0	-5835216.0
16	14	24	48	220	155.0	-312167.0	-100702.0	-5835955.0
16	14	24	48	220	156.0	-250011.0	-101056.0	-5835491.0
16	14	24	48	220	157.0	-183456.0	-100862.0	-5834899.0
16	14	24	48	220	158.0	-113258.0	-100316.0	-5835456.0
16	14	24	48	221	160.0	5153.0	-99565.0	-5835541.0
16	14	24	48	221	161.0	65357.0	-100655.0	-5834976.0
16	14	24	48	221	162.0	86728.0	-100539.0	-5835631.0
16	14	24	48	222	163.0	97730.0	-99914.0	-5836355.0
16	14	24	48	222	164.0	86860.0	-99772.0	-5835773.0
16	14	24	48	222	165.0	86840.0	-99241.0	-5835167.0
16	14	24	48	244	166.0	113966.0	-98778.0	-5834787.0
16	14	24	48	284	167.0	135613.0	-97667.0	-5836143.0
16	14	24	48	329	168.0	142907.0	-95136.0	-5836407.0
16	14	24	48	330	169.0	125035.0	-93082.0	-5835815.0
16	14	24	48	330	170.0	104879.0	-91899.0	-5835204.0
16	14	24	48	330	171.0	41001.0	-91126.0	-5835961.0
16	14	24	48	331	172.0	-20762.0	-89813.0	-5836772.0
16	14	24	48	343	173.0	-47138.0	-87901.0	-5836224.0
16	14	24	48	344	174.0	-33014.0	-86337.0	-5835585.0
16	14	24	48	344	175.0	15229.0	-84756.0	-5835564.0
16	14	24	48	344	176.0	53624.0	-83429.0	-5836622.0
16	14	24	48	345	177.0	88753.0	-81174.0	-5836333.0
16	14	24	48	345	178.0	114905.0	-79082.0	-5835675.0
16	14	24	48	345	179.0	92421.0	-77505.0	-5835128.0
16	14	24	48	346	180.0	61214.0	-76011.0	-5835897.0
16	14	24	48	346	182.0	51822.0	-72929.0	-5836020.0
16	14	24	48	346	205.0	122966.0	-32117.0	-5835632.0
16	14	24	48	347	227.0	122521.0	-11322.0	-5836186.0
16	14	24	48	347	228.0	118280.0	-11998.0	-5835584.0
16	14	24	48	347	229.0	122085.0	-12392.0	-5834971.0
16	14	24	48	347	230.0	149324.0	-12331.0	-5835237.0
16	14	24	48	348	231.0	160010.0	-12447.0	-5836452.0
16	14	24	48	348	232.0	165779.0	-12467.0	-5836059.0
16	14	24	48	385	233.0	173809.0	-12072.0	-5835431.0
16	14	24	48	385	234.0	167328.0	-11634.0	-5835171.0
16	14	24	48	420	235.0	158638.0	-10781.0	-5836502.0
16	14	24	48	453	236.0	135919.0	-9975.0	-5836536.0
16	14	24	48	453	237.0	104398.0	-9697.0	-5835902.0
16	14	24	48	454	238.0	98426.0	-9722.0	-5835324.0
16	14	24	48	454	239.0	95935.0	-10041.0	-5835862.0
16	14	24	48	454	240.0	94421.0	-10071.0	-5836700.0
16	14	24	48	454	241.0	77313.0	-10051.0	-5836169.0
16	14	24	48	455	242.0	71402.0	-9962.0	-5835539.0
16	14	24	48	455	243.0	88621.0	-10250.0	-5835294.0
16	14	24	48	455	244.0	101766.0	-10442.0	-5836512.0
16	14	24	48	456	245.0	111117.0	-11309.0	-5836546.0
16	14	24	48	456	246.0	96299.0	-11824.0	-5835888.0
16	14	24	48	456	247.0	71046.0	-12154.0	-5835307.0
16	14	24	48	457	248.0	43914.0	-12473.0	-5835211.0
16	14	24	48	457	250.0	-18969.0	-12389.0	-5835410.0
16	14	24	48	457	16.0	161020.0	-19812.0	-5835790.0
16	14	24	48	457	17.0	171532.0	-20448.0	-5835276.0
16	14	24	48	458	18.0	173159.0	-21324.0	-5836017.0
16	14	24	48	458	19.0	163125.0	-21741.0	-5836667.0
16	14	24	48	458	20.0	146931.0	-22154.0	-5836032.0
16	14	24	48	459	21.0	120583.0	-21997.0	-5835463.0
16	14	24	48	485	22.0	91659.0	-21602.0	-5835231.0
16	14	24	48	486	23.0	50286.0	-21244.0	-5836026.0
16	14	24	48	486	24.0	6191.0	-20583.0	-5835666.0
16	14	24	48	486	25.0	-36079.0	-20692.0	-5835044.0
16	14	24	48	487	26.0	-84408.0	-20633.0	-5835071.0
16	14	24	48	487	27.0	-115993.0	-19771.0	-5836133.0
16	14	24	48	487	28.0	-135011.0	-19921.0	-5835797.0
16	14	24	48	487	29.0	-123770.0	-19696.0	-5835181.0
16	14	24	48	488	30.0	-66448.0	-18903.0	-5835022.0
16	14	24	48	488	31.0	12648.0	-18649.0	-5836184.0
16	14	24	48	488	32.0	80744.0	-18141.0	-5835953.0
16	14	24	48	488	33.0	122781.0	-18166.0	-5835336.0
16	14	24	48	489	34.0	142448.0	-17556.0	-5834761.0
16	14	24	48	489	35.0	143244.0	-17561.0	-5835467.0
16	14	24	48	489	36.0	133879.0	-17011.0	-5835997.0
16	14	24	48	489	39.0	115026.0	-15774.0	-5834914.0
16	14	24	48	490	40.0	135846.0	-16574.0	-5836117.0
16	14	24	48	490	41.0	177417.0	-16044.0	-5835820.0
16	14	24	48	490	42.0	224013.0	-14869.0	-5835170.0
16	14	24	48	490	43.0	275048.0	-14519.0	-5834956.0
16	14	24	48	519	44.0	332880.0	-14646.0	-5836123.0
16	14	24	48	519	45.0	387545.0	-13837.0	-5836115.0
16	14	24	48	519	46.0	434684.0	-12460.0	-5835480.0
16	14	24	48	520	47.0	473230.0	-11147.0	-5834897.0
16	14	24	48	520	48.0	500385.0	-10286.0	-5834952.0
16	14	24	48	520	49.0	511066.0	-10402.0	-5835644.0
16	14	24	48	521	50.0	492578.0	-9554.0	-5835169.0
16	14	24	48	521	51.0	473559.0	-9082.0	-5834554.0
16	14	24	48	521	52.0	462631.0	-8546.0	-5834781.0
16	14	24	48	522	53.0	455928.0	-8376.0	-5835526.0
16	14	24	48	522	54.0	425773.0	-8504.0	-5835061.0
16	14	24	48	522	55.0	371368.0	-8719.0	-5834494.0
16	14	24	48	523	56.0	299585.0	-7559.0	-5834815.0
16	14	24	48	523	57.0	220237.0	-7205.0	-5835062.0
16	14	24	48	523	58.0	144018.0	-6919.0	-5834531.0
16	14	24	48	523	61.0	-85236.0	-5930.0	-5834779.0
16	14	24	48	550	62.0	-155794.0	-6052.0	-5834224.0
16	14	24	48	550	63.0	-218444.0	-6444.0	-5834451.0
16	14	24	48	551	64.0	-271232.0	-6094.0	-5835501.0
16	14	24	48	551	65.0	-316884.0	-5601.0	-5834996.0
16	14	24	48	552	66.0	-360029.0	-5196.0	-5834429.0
16	14	24	48	584	67.0	-395644.0	-5114.0	-5833794.0
16	14	24	48	584	68.0	-415156.0	-4561.0	-5834655.0
16	14	24	48	584	69.0	-429145.0	-2786.0	-5835311.0
16	14	24	48	585	70.0	-459412.0	-2180.0	-5834827.0
16	14	24	48	585	71.0	-479894.0	-2109.0	-5834165.0
16	14	24	48	585	72.0	-486047.0	-1183.0	-5834106.0
16	14	24	48	586	73.0	-481972.0	-929.0	-5835217.0
16	14	24	48	586	74.0	-459920.0	5.0	-5835055.0
16	14	24	48	586	75.0	-408564.0	531.0	-5834411.0
16	14	24	48	587	76.0	-320650.0	671.0	-5834312.0
16	14	24	48	587	77.0	-221116.0	826.0	-5835564.0
16	14	24	48	587	78.0	-126989.0	1316.0	-5835534.0
16	14	24	48	588	79.0	-51926.0	1788.0	-5834861.0
16	14	24	48	588	80.0	181.0	2476.0	-5834328.0
16	14	24	48	588	81.0	21179.0	3005.0	-5834474.0
16	14	24	48	589	83.0	7924.0	3199.0	-5835149.0
16	14	24	48	589	84.0	3168.0	3498.0	-5834591.0
16	14	24	48	589	85.0	8548.0	2625.0	-5834056.0
16	14	24	48	589	86.0	33734.0	2273.0	-5834667.0
16	14	24	48	590	87.0	81421.0	2699.0	-5834700.0
16	14	24	48	590	88.0	143940.0	3338.0	-5834161.0
16	14	24	48	590	89.0	165143.0	3469.0	-5833769.0
16	14	24	48	618	90.0	116840.0	3778.0	-5835022.0
16	14	24	48	618	91.0	125979.0	4419.0	-5835084.0
16	14	24	48	618	92.0	171816.0	6004.0	-5834521.0
16	14	24	48	619	93.0	197321.0	6609.0	-5833929.0
16	14	24	48	619	94.0	145836.0	7334.0	-5834897.0
16	14	24	48	619	95.0	35974.0	7486.0	-5835436.0
16	14	24	48	620	96.0	-39376.0	7421.0	-5834907.0
16	14	24	48	620	97.0	-76027.0	8265.0	-5834219.0
16	14	24	48	620	98.0	-116001.0	9178.0	-5834198.0
16	14	24	48	621	99.0	-150430.0	9271.0	-5835422.0
16	14	24	48	621	100.0	-181107.0	9046.0	-5835273.0
16	14	24	48	621	101.0	-187410.0	9006.0	-5834601.0
16	14	24	48	621	102.0	-185221.0	9756.0	-5834080.0
16	14	24	48	622	103.0	-204642.0	10054.0	-5834648.0
16	14	24	48	622	104.0	-261392.0	9601.0	-5835669.0
16	14	24	48	622	106.0	-315629.0	10638.0	-5834512.0
16	14	24	48	623	107.0	-320750.0	9816.0	-5834468.0
16	14	24	48	623	108.0	-318902.0	9352.0	-5835716.0
16	14	24	48	623	109.0	-303655.0	9555.0	-5835385.0
16	14	24	48	623	110.0	-256957.0	9634.0	-5834840.0
16	14	24	48	624	111.0	-198727.0	9911.0	-5834306.0
16	14	24	48	653	112.0	-178854.0	9894.0	-5835325.0
16	14	24	48	654	113.0	-144645.0	10203.0	-5835695.0
16	14	24	48	654	114.0	-135367.0	10776.0	-5835152.0
16	14	24	48	654	115.0	-138087.0	11073.0	-5834433.0
16	14	24	48	655	116.0	-136851.0	11257.0	-5834340.0
16	14	24	48	655	117.0	-119866.0	10809.0	-5835429.0
16	14	24	48	655	118.0	-108392.0	10791.0	-5835244.0
16	14	24	48	656	119.0	-83629.0	10880.0	-5834596.0
16	14	24	48	656	120.0	-39061.0	11015.0	-5834188.0
16	14	24	48	656	121.0	-24480.0	11111.0	-5835194.0
16	14	24	48	657	122.0	-5561.0	10928.0	-5835495.0
16	14	24	48	657	123.0	-10507.0	11024.0	-5834866.0
16	14	24	48	657	124.0	-691.0	11193.0	-5834288.0
16	14	24	48	657	125.0	-16352.0	11189.0	-5834712.0
16	14	24	48	658	126.0	-21286.0	11140.0	-5835723.0
16	14	24	48	658	128.0	15565.0	10856.0	-5834628.0
16	14	24	48	658	129.0	40185.0	10493.0	-5834166.0
16	14	24	48	689	130.0	89419.0	9660.0	-5835159.0
16	14	24	48	690	131.0	156064.0	9718.0	-5835386.0
16	14	24	48	690	132.0	219616.0	9273.0	-5834749.0
16	14	24	48	690	133.0	290131.0	8973.0	-5834154.0
16	14	24	48	691	134.0	357152.0	8699.0	-5834364.0
16	14	24	48	735	135.0	429578.0	8398.0	-5835074.0
16	14	24	48	736	136.0	494456.0	8384.0	-5834611.0
16	14	24	48	780	137.0	546904.0	9151.0	-5834027.0
16	14	24	48	803	138.0	553133.0	9401.0	-5834504.0
16	14	24	48	841	139.0	450031.0	9255.0	-5834916.0
16	14	24	48	841	140.0	179741.0	9397.0	-5834371.0
16	14	24	48	841	141.0	-168010.0	9561.0	-5833886.0
16	14	24	48	842	142.0	-559942.0	9151.0	-5834624.0
16	14	24	48	842	143.0	-892387.0	8533.0	-5834476.0
16	14	24	48	842	144.0	-1094204.0	8012.0	-5833905.0
16	14	24	48	842	145.0	-1172326.0	8383.0	-5833597.0
16	14	24	48	843	146.0	-1135456.0	8072.0	-5834359.0
16	14	24	48	843	147.0	-979100.0	7575.0	-5834029.0
16	14	24	48	843	148.0	-684461.0	7230.0	-5833497.0
16	14	24	48	843	149.0	-260812.0	7703.0	-5833300.0
16	14	24	48	844	173.0	781963.0	7193.0	-5834214.0
16	14	24	48	844	174.0	490018.0	6396.0	-5833926.0
16	14	24	48	844	175.0	229913.0	5459.0	-5833301.0
16	14	24	48	845	196.0	57554.0	6058.0	-5833810.0
16	14	24	48	845	197.0	23935.0	5230.0	-5833204.0
16	14	24	48	845	219.0	537323.0	7038.0	-5832870.0
16	14	24	48	845	220.0	409798.0	6319.0	-5833919.0
16	14	24	48	846	221.0	275128.0	6444.0	-5833706.0
16	14	24	48	846	222.0	138491.0	6349.0	-5833028.0
16	14	24	48	846	223.0	8317.0	6345.0	-5832516.0
16	14	24	48	847	224.0	-115091.0	6541.0	-5833301.0
16	14	24	48	879	225.0	-221266.0	6849.0	-5833836.0
16	14	24	48	879	226.0	-289525.0	7450.0	-5833189.0
16	14	24	48	880	227.0	-316661.0	8839.0	-5832569.0
16	14	24	48	880	228.0	-299029.0	9831.0	-5832596.0
16	14	24	48	880	229.0	-235371.0	10423.0	-5833651.0
16	14	24	48	881	230.0	-142734.0	10965.0	-5833285.0
16	14	24	48	881	231.0	-44120.0	11621.0	-5832668.0
16	14	24	48	881	232.0	45263.0	12886.0	-5832209.0
16	14	24	48	882	233.0	118071.0	13703.0	-5833222.0
16	14	24	48	882	234.0	177518.0	15321.0	-5833495.0
16	14	24	48	882	235.0	231876.0	17222.0	-5832896.0
16	14	24	48	883	236.0	286051.0	19218.0	-5832302.0
16	14	24	48	883	237.0	333354.0	21666.0	-5832623.0
16	14	24	48	883	238.0	372513.0	24308.0	-5833067.0
16	14	24	48	884	239.0	395583.0	27099.0	-5832556.0
16	14	24	48	884	241.0	281132.0	33642.0	-5832496.0
16	14	24	48	884	242.0	189298.0	35998.0	-5832785.0
16	14	24	48	912	243.0	121759.0	38969.0	-5832206.0
16	14	24	48	912	244.0	85288.0	42621.0	-5831642.0
16	14	24	48	913	245.0	78842.0	46344.0	-5832708.0
16	14	24	48	913	246.0	71137.0	50342.0	-5833143.0
16	14	24	48	943	247.0	30719.0	54524.0	-5832536.0
16	14	24	48	943	248.0	-33238.0	59195.0	-5831859.0
16	14	24	48	944	249.0	-119745.0	64407.0	-5832165.0
16	14	24	48	944	250.0	-206286.0	69146.0	-5833156.0
16	14	24	48	944	251.0	-269524.0	73084.0	-5832730.0
16	14	24	48	945	252.0	-312870.0	76743.0	-5832034.0
16	14	24	48	945	253.0	-335357.0	80958.0	-5831777.0
16	14	24	48	945	254.0	-333701.0	84311.0	-5832935.0
16	14	24	48	945	255.0	-319589.0	88095.0	-5832950.0
16	14	24	48	946	0.0	-309541.0	91743.0	-5832291.0
16	14	24	48	946	1.0	-293832.0	95394.0	-5831745.0
16	14	24	48	946	2.0	-254838.0	98652.0	-5832359.0
16	14	24	48	947	3.0	-203790.0	101641.0	-5833335.0
16	14	24	48	947	4.0	-157495.0	103748.0	-5832799.0
16	14	24	48	947	5.0	-119514.0	106459.0	-5832210.0
16	14	24	48	947	7.0	-34151.0	110538.0	-5833190.0
16	14	24	48	948	8.0	18134.0	111941.0	-5833175.0
16	14	24	48	948	9.0	55182.0	112980.0	-5832547.0
16	14	24	48	948	10.0	75705.0	114340.0	-5831986.0
16	14	24	48	948	11.0	84371.0	115685.0	-5832474.0
16	14	24	48	949	12.0	86858.0	116626.0	-5832849.0
16	14	24	48	949	13.0	98599.0	117058.0	-5832327.0
16	14	24	48	973	14.0	119895.0	117674.0	-5831747.0
16	14	24	48	973	15.0	141128.0	118139.0	-5832206.0
16	14	24	48	973	16.0	157404.0	118683.0	-5832288.0
16	14	24	48	974	17.0	168219.0	118396.0	-5831751.0
16	14	24	48	974	18.0	181338.0	117394.0	-5831494.0
16	14	24	48	974	19.0	202356.0	116265.0	-5832779.0
16	14	24	48	975	20.0	233639.0	115023.0	-5832583.0
16	14	24	48	975	21.0	272657.0	113523.0	-5832007.0
16	14	24	48	975	22.0	293269.0	112438.0	-5831364.0
16	14	24	48	975	23.0	291332.0	110938.0	-5831894.0
16	14	24	48	976	24.0	280429.0	108735.0	-5832893.0
16	14	24	48	976	25.0	257659.0	106174.0	-5832434.0
16	14	24	48	976	26.0	219350.0	104421.0	-5831767.0
16	14	24	48	977	27.0	172902.0	101905.0	-5831943.0
16	14	24	48	977	28.0	109690.0	99066.0	-5833135.0
16	14	24	48	977	30.0	-172287.0	92471.0	-5832169.0
16	14	24	48	977	31.0	-455202.0	88339.0	-5831752.0
16	14	24	48	978	32.0	-786551.0	84795.0	-5832596.0
16	14	24	48	978	33.0	-906772.0	81913.0	-5832851.0
16	14	24	48	978	34.0	-615067.0	78623.0	-5832211.0
16	14	24	48	979	35.0	-5041.0	74891.0	-5831664.0
16	14	24	49	4	36.0	580538.0	71339.0	-5831809.0
16	14	24	49	32	37.0	1022271.0	68344.0	-5833017.0
16	14	24	49	32	38.0	1325969.0	65934.0	-5832663.0
16	14	24	49	33	39.0	1420385.0	62219.0	-5832054.0
16	14	24	49	33	40.0	1293753.0	58414.0	-5831627.0
16	14	24	49	33	41.0	1030839.0	54786.0	-5832613.0
16	14	24	49	33	42.0	695294.0	51131.0	-5832720.0
16	14	24	49	34	43.0	362774.0	47511.0	-5832102.0
16	14	24	49	34	44.0	87083.0	43835.0	-5831499.0
16	14	24	49	34	45.0	-113789.0	39839.0	-5831819.0
16	14	24	49	35	46.0	-247806.0	36153.0	-5832061.0
16	14	24	49	35	47.0	-350467.0	32434.0	-5831521.0
16	14	24	49	35	48.0	-429076.0	28845.0	-5831385.0
16	14	24	49	35	49.0	-479347.0	25431.0	-5832763.0
16	14	24	49	36	50.0	-499895.0	22265.0	-5832536.0
16	14	24	49	36	52.0	-521507.0	16176.0	-5831342.0
16	14	24	49	36	53.0	-501957.0	12512.0	-5831617.0
16	14	24	49	36	54.0	-437658.0	9082.0	-5832842.0
16	14	24	49	37	55.0	-352962.0	5831.0	-5832483.0
16	14	24	49	37	56.0	-261837.0	2541.0	-5831863.0
16	14	24	49	37	57.0	-138682.0	-651.0	-5831416.0
16	14	24	49	61	58.0	20109.0	-3526.0	-5832461.0
16	14	24	49	62	59.0	158515.0	-6293.0	-5832790.0
16	14	24	49	62	60.0	223916.0	-8268.0	-5832133.0
16	14	24	49	62	61.0	206865.0	-10712.0	-5831587.0
16	14	24	49	63	62.0	138631.0	-13927.0	-5832485.0
16	14	24	49	63	63.0	50581.0	-17185.0	-5833305.0
16	14	24	49	63	64.0	-32668.0	-20111.0	-5832731.0
16	14	24	49	64	65.0	-97848.0	-23139.0	-5832114.0
16	14	24	49	64	66.0	-154384.0	-26139.0	-5831997.0
16	14	24	49	64	67.0	-213486.0	-29071.0	-5833312.0
16	14	24	49	64	68.0	-261445.0	-31821.0	-5833127.0
16	14	24	49	65	69.0	-289294.0	-34996.0	-5832494.0
16	14	24	49	65	70.0	-285971.0	-37192.0	-5831910.0
16	14	24	49	65	71.0	-258297.0	-39763.0	-5832289.0
16	14	24	49	65	72.0	-220571.0	-41952.0	-5832944.0
16	14	24	49	66	75.0	-58246.0	-48214.0	-5832914.0
16	14	24	49	66	76.0	9427.0	-50976.0	-5833496.0
16	14	24	49	66	77.0	69911.0	-52751.0	-5832954.0
16	14	24	49	67	78.0	127413.0	-54053.0	-5832291.0
16	14	24	49	67	79.0	195396.0	-55259.0	-5832316.0
16	14	24	49	91	80.0	263517.0	-56374.0	-5833536.0
16	14	24	49	122	81.0	328154.0	-57679.0	-5833330.0
16	14	24	49	122	82.0	377836.0	-58396.0	-5832665.0
16	14	24	49	123	83.0	402995.0	-57995.0	-5832062.0
16	14	24	49	123	84.0	408406.0	-58101.0	-5832661.0
16	14	24	49	123	85.0	398483.0	-58702.0	-5833382.0
16	14	24	49	123	86.0	370854.0	-59369.0	-5832830.0
16	14	24	49	124	87.0	319536.0	-60434.0	-5832216.0
16	14	24	49	124	88.0	255708.0	-60794.0	-5832399.0
16	14	24	49	124	89.0	199046.0	-61479.0	-5833771.0
16	14	24	49	125	90.0	153340.0	-61839.0	-5833491.0
16	14	24	49	125	91.0	107279.0	-62380.0	-5832906.0
16	14	24	49	125	92.0	68618.0	-62839.0	-5832524.0
16	14	24	49	126	93.0	38157.0	-62922.0	-5833750.0
16	14	24	49	126	94.0	15291.0	-63430.0	-5833992.0
16	14	24	49	126	95.0	1109.0	-63933.0	-5833384.0
16	14	24	49	126	97.0	703.0	-63399.0	-5832847.0
16	14	24	49	127	98.0	-8264.0	-64002.0	-5834218.0
16	14	24	49	127	99.0	-11922.0	-65059.0	-5833891.0
16	14	24	49	127	100.0	-6995.0	-64971.0	-5833299.0
16	14	24	49	128	101.0	17725.0	-64962.0	-5832729.0
16	14	24	49	128	102.0	65875.0	-64637.0	-5833747.0
16	14	24	49	152	103.0	120528.0	-63869.0	-5834329.0
16	14	24	49	153	104.0	166137.0	-63152.0	-5833785.0
16	14	24	49	153	105.0	194421.0	-61627.0	-5833107.0
16	14	24	49	154	106.0	198836.0	-60022.0	-5833015.0
16	14	24	49	154	107.0	179707.0	-59361.0	-5834434.0
16	14	24	49	154	108.0	144959.0	-58932.0	-5834397.0
16	14	24	49	154	109.0	103546.0	-57769.0	-5833731.0
16	14	24	49	155	110.0	62014.0	-56035.0	-5833261.0
16	14	24	49	155	111.0	13031.0	-54356.0	-5834199.0
16	14	24	49	155	112.0	-36690.0	-53086.0	-5834682.0
16	14	24	49	156	113.0	-90151.0	-51948.0	-5834037.0
16	14	24	49	156	114.0	-149771.0	-50859.0	-5833481.0
16	14	24	49	156	115.0	-204742.0	-49144.0	-5833060.0
16	14	24	49	157	116.0	-258156.0	-47503.0	-5834144.0
16	14	24	49	157	117.0	-292886.0	-45622.0	-5834021.0
16	14	24	49	157	119.0	-297842.0	-42793.0	-5832849.0
16	14	24	49	157	120.0	-270043.0	-40927.0	-5833686.0
16	14	24	49	158	121.0	-236941.0	-39411.0	-5834306.0
16	14	24	49	183	122.0	-198432.0	-37882.0	-5833764.0
16	14	24	49	183	123.0	-154763.0	-36049.0	-5833156.0
16	14	24	49	183	124.0	-104867.0	-34046.0	-5833896.0
16	14	24	49	184	125.0	-37376.0	-31988.0	-5834410.0
16	14	24	49	213	126.0	47757.0	-29674.0	-5833911.0
16	14	24	49	213	127.0	124474.0	-27544.0	-5833210.0
16	14	24	49	213	128.0	173431.0	-24304.0	-5833114.0
16	14	24	49	214	129.0	201327.0	-22029.0	-5834154.0
16	14	24	49	214	130.0	216581.0	-19476.0	-5833981.0
16	14	24	49	214	131.0	208579.0	-17016.0	-5833260.0
16	14	24	49	214	132.0	170636.0	-14871.0	-5832744.0
16	14	24	49	215	133.0	106969.0	-12530.0	-5833404.0
16	14	24	49	215	134.0	42251.0	-10538.0	-5834264.0
16	14	24	49	215	135.0	-10801.0	-9416.0	-5833643.0
16	14	24	49	216	136.0	-37786.0	-8121.0	-5833051.0
16	14	24	49	216	137.0	-59164.0	-6777.0	-5832647.0
16	14	24	49	216	138.0	-86656.0	-5431.0	-5833819.0
16	14	24	49	216	139.0	-100936.0	-3982.0	-5833854.0
16	14	24	49	217	140.0	-95727.0	-3001.0	-5833311.0
16	14	24	49	217	142.0	-48220.0	-949.0	-5833462.0
16	14	24	49	243	143.0	-18463.0	-776.0	-5833406.0
16	14	24	49	243	144.0	5098.0	-728.0	-5832850.0
16	14	24	49	244	145.0	26547.0	-86.0	-5832489.0
16	14	24	49	244	146.0	47446.0	-286.0	-5833229.0
16	14	24	49	244	147.0	83149.0	-326.0	-5832924.0
16	14	24	49	245	148.0	129946.0	414.0	-5832379.0
16	14	24	49	245	149.0	174321.0	1509.0	-5832197.0
16	14	24	49	245	150.0	206382.0	1189.0	-5833149.0
16	14	24	49	246	151.0	221210.0	1079.0	-5832782.0
16	14	24	49	246	152.0	208889.0	1201.0	-5832229.0
16	14	24	49	246	153.0	176891.0	904.0	-5832084.0
16	14	24	49	246	154.0	132794.0	1041.0	-5832838.0
16	14	24	49	247	155.0	74544.0	988.0	-5832404.0
16	14	24	49	247	156.0	13254.0	913.0	-5831955.0
16	14	24	49	247	157.0	-33383.0	766.0	-5832983.0
16	14	24	49	248	164.0	-72239.0	564.0	-5831621.0
16	14	24	49	248	165.0	-57769.0	-345.0	-5831602.0
16	14	24	49	248	166.0	-43498.0	-1571.0	-5832892.0
16	14	24	49	249	167.0	-12859.0	-2258.0	-5832634.0
16	14	24	49	249	168.0	19143.0	-2761.0	-5832052.0
16	14	24	49	249	169.0	44458.0	-2982.0	-5831688.0
16	14	24	49	274	170.0	58533.0	-3348.0	-5832989.0
16	14	24	49	274	171.0	60392.0	-4063.0	-5833112.0
16	14	24	49	304	172.0	50671.0	-4319.0	-5832512.0
16	14	24	49	304	173.0	46221.0	-4395.0	-5832006.0
16	14	24	49	305	174.0	34908.0	-4735.0	-5832865.0
16	14	24	49	305	175.0	27337.0	-5475.0	-5833211.0
16	14	24	49	305	176.0	28148.0	-5942.0	-5832596.0
16	14	24	49	305	177.0	43681.0	-6543.0	-5831980.0
16	14	24	49	306	178.0	72479.0	-7421.0	-5832297.0
16	14	24	49	306	179.0	96293.0	-8396.0	-5833253.0
16	14	24	49	306	180.0	114887.0	-9061.0	-5832840.0
16	14	24	49	307	181.0	117659.0	-9844.0	-5832209.0
16	14	24	49	307	182.0	130048.0	-10318.0	-5831801.0
16	14	24	49	307	183.0	139224.0	-10914.0	-5832812.0
16	14	24	49	307	184.0	131931.0	-11807.0	-5833334.0
16	14	24	49	308	185.0	122912.0	-12440.0	-5832684.0
16	14	24	49	308	187.0	70908.0	-14143.0	-5832151.0
16	14	24	49	308	188.0	72244.0	-15835.0	-5832777.0
16	14	24	49	309	189.0	73328.0	-16868.0	-5832311.0
16	14	24	49	309	190.0	81100.0	-17268.0	-5831814.0
16	14	24	49	309	191.0	94077.0	-18302.0	-5832743.0
16	14	24	49	309	192.0	84947.0	-19359.0	-5833304.0
16	14	24	49	335	193.0	73788.0	-20203.0	-5832724.0
16	14	24	49	335	194.0	56589.0	-20437.0	-5832134.0
16	14	24	49	336	195.0	23895.0	-20026.0	-5831972.0
16	14	24	49	336	196.0	2603.0	-20619.0	-5833202.0
16	14	24	49	336	197.0	-9517.0	-21641.0	-5832947.0
16	14	24	49	337	198.0	-11499.0	-22461.0	-5832372.0
16	14	24	49	337	199.0	3426.0	-22907.0	-5831801.0
16	14	24	49	337	200.0	20001.0	-23274.0	-5832694.0
16	14	24	49	337	201.0	19049.0	-23573.0	-5833181.0
16	14	24	49	338	202.0	17703.0	-23687.0	-5832646.0
16	14	24	49	338	203.0	-12604.0	-24444.0	-5832044.0
16	14	24	49	338	204.0	-67376.0	-25034.0	-5832681.0
16	14	24	49	339	205.0	-117536.0	-25418.0	-5833576.0
16	14	24	49	339	206.0	-155838.0	-25874.0	-5833066.0
16	14	24	49	339	207.0	-182539.0	-26210.0	-5832412.0
16	14	24	49	365	209.0	-207792.0	-26454.0	-5833524.0
16	14	24	49	366	210.0	-206734.0	-27666.0	-5833344.0
16	14	24	49	366	211.0	-185298.0	-29151.0	-5832668.0
16	14	24	49	367	212.0	-161265.0	-29174.0	-5832094.0
16	14	24	49	367	213.0	-136864.0	-29365.0	-5832418.0
16	14	24	49	368	214.0	-99713.0	-29336.0	-5833349.0
16	14	24	49	368	215.0	-72047.0	-29674.0	-5832790.0
16	14	24	49	368	216.0	-38447.0	-29917.0	-5832231.0
16	14	24	49	369	217.0	-1275.0	-29823.0	-5832033.0
16	14	24	49	369	218.0	29814.0	-29049.0	-5833190.0
16	14	24	49	369	219.0	60195.0	-28310.0	-5832961.0
16	14	24	49	370	220.0	74983.0	-28374.0	-5832399.0
16	14	24	49	370	221.0	102856.0	-28599.0	-5831834.0
16	14	24	49	370	222.0	149269.0	-28879.0	-5832844.0
16	14	24	49	371	223.0	182749.0	-28712.0	-5833402.0
16	14	24	49	371	224.0	202074.0	-28079.0	-5832884.0
16	14	24	49	372	225.0	224296.0	-27732.0	-5832182.0
16	14	24	49	372	226.0	283506.0	-27631.0	-5832216.0
16	14	24	49	372	227.0	333219.0	-27652.0	-5833361.0
16	14	24	49	373	228.0	357095.0	-28135.0	-5833174.0
16	14	24	49	373	229.0	381309.0	-27788.0	-5832523.0
16	14	24	49	396	230.0	397819.0	-26894.0	-5832026.0
16	14	24	49	397	232.0	428654.0	-26267.0	-5833734.0
16	14	24	49	397	233.0	447529.0	-26749.0	-5833149.0
16	14	24	49	397	234.0	476654.0	-27211.0	-5832586.0
16	14	24	49	398	235.0	499758.0	-26950.0	-5832312.0
16	14	24	49	398	236.0	520219.0	-26687.0	-5833177.0
16	14	24	49	398	237.0	534564.0	-26285.0	-5832851.0
16	14	24	49	435	238.0	519471.0	-26245.0	-5832313.0
16	14	24	49	435	239.0	501058.0	-25484.0	-5832760.0
16	14	24	49	435	240.0	493838.0	-23926.0	-5833572.0
16	14	24	49	436	241.0	491903.0	-23305.0	-5833024.0
16	14	24	49	436	242.0	503677.0	-22992.0	-5832456.0
16	14	24	49	436	243.0	500520.0	-22627.0	-5831959.0
16	14	24	49	436	244.0	478574.0	-22166.0	-5833117.0
16	14	24	49	437	245.0	450674.0	-20794.0	-5833261.0
16	14	24	49	437	246.0	383595.0	-20277.0	-5832704.0
16	14	24	49	437	247.0	297961.0	-20154.0	-5832022.0
16	14	24	49	438	248.0	203387.0	-20044.0	-5832579.0
16	14	24	49	438	249.0	104514.0	-19260.0	-5833607.0
16	14	24	49	438	250.0	32696.0	-18659.0	-5833187.0
16	14	24	49	439	251.0	-17386.0	-18281.0	-5832537.0
16	14	24	49	439	252.0	-85608.0	-18177.0	-5832642.0
16	14	24	49	439	254.0	-204478.0	-17361.0	-5833752.0
16	14	24	49	439	255.0	-232232.0	-17138.0	-5833081.0
16	14	24	49	440	0.0	-223732.0	-17698.0	-5832659.0
16	14	24	49	440	1.0	-221118.0	-17152.0	-5833677.0
16	14	24	49	440	2.0	-235921.0	-16818.0	-5834216.0
16	14	24	49	440	3.0	-245982.0	-16329.0	-5833511.0
16	14	24	49	441	4.0	-235182.0	-15323.0	-5832929.0
16	14	24	49	472	5.0	-217956.0	-14962.0	-5832445.0
16	14	24	49	473	6.0	-192614.0	-14476.0	-5833149.0
16	14	24	49	473	7.0	-168312.0	-12789.0	-5833036.0
16	14	24	49	474	8.0	-172494.0	-12481.0	-5832479.0
16	14	24	49	474	9.0	-181107.0	-12301.0	-5832553.0
16	14	24	49	474	10.0	-176275.0	-11553.0	-5833909.0
16	14	24	49	474	11.0	-159419.0	-10919.0	-5833564.0
16	14	24	49	475	12.0	-147056.0	-10124.0	-5832991.0
16	14	24	49	475	13.0	-145137.0	-9769.0	-5832818.0
16	14	24	49	475	14.0	-154742.0	-9000.0	-5834129.0
16	14	24	49	476	15.0	-170640.0	-8040.0	-5833891.0
16	14	24	49	476	16.0	-170131.0	-7241.0	-5833355.0
16	14	24	49	476	17.0	-173881.0	-6262.0	-5832690.0
16	14	24	49	476	18.0	-165250.0	-5280.0	-5833027.0
16	14	24	49	477	19.0	-126907.0	-4743.0	-5833961.0
16	14	24	49	477	21.0	-63276.0	-3332.0	-5832887.0
16	14	24	49	477	22.0	-27618.0	-3534.0	-5832609.0
16	14	24	49	478	23.0	14668.0	-3348.0	-5833681.0
16	14	24	49	478	24.0	29096.0	-2822.0	-5833785.0
16	14	24	49	478	25.0	39241.0	-2099.0	-5833066.0
16	14	24	49	479	26.0	80864.0	-1437.0	-5832670.0
16	14	24	49	508	27.0	123281.0	-697.0	-5833528.0
16	14	24	49	508	28.0	133854.0	-187.0	-5833817.0
16	14	24	49	508	29.0	86260.0	773.0	-5833146.0
16	14	24	49	509	30.0	55478.0	1999.0	-5832611.0
16	14	24	49	546	31.0	48083.0	2358.0	-5833079.0
16	14	24	49	576	32.0	31751.0	2523.0	-5833983.0
16	14	24	49	576	33.0	10325.0	2958.0	-5833408.0
16	14	24	49	577	34.0	16841.0	3234.0	-5832878.0
16	14	24	49	577	35.0	11663.0	3480.0	-5832282.0
16	14	24	49	577	36.0	11221.0	4642.0	-5833201.0
16	14	24	49	578	37.0	1253.0	5408.0	-5833742.0
16	14	24	49	578	38.0	263.0	5402.0	-5833202.0
16	14	24	49	578	39.0	-684.0	5206.0	-5832554.0
16	14	24	49	578	40.0	-17797.0	4601.0	-5832457.0
16	14	24	49	579	41.0	-22117.0	4716.0	-5833706.0
16	14	24	49	579	43.0	6255.0	5087.0	-5832887.0
16	14	24	49	579	44.0	38989.0	4303.0	-5832617.0
16	14	24	49	580	45.0	80811.0	3740.0	-5833767.0
16	14	24	49	580	46.0	114982.0	4644.0	-5833895.0
16	14	24	49	580	66.0	35106.0	2016.0	-5833103.0
16	14	24	49	581	67.0	472182.0	774.0	-5833944.0
16	14	24	49	581	68.0	819150.0	793.0	-5833437.0
16	14	24	49	581	69.0	978175.0	1428.0	-5832858.0
16	14	24	49	582	70.0	872606.0	1486.0	-5832387.0
16	14	24	49	582	71.0	561753.0	1829.0	-5833488.0
16	14	24	49	612	72.0	126891.0	1758.0	-5833769.0
16	14	24	49	612	73.0	-400443.0	2609.0	-5833143.0
16	14	24	49	613	74.0	-862922.0	3554.0	-5832547.0
16	14	24	49	613	75.0	-1125755.0	4595.0	-5833442.0
16	14	24	49	613	76.0	-1106952.0	4865.0	-5834031.0
16	14	24	49	614	77.0	-847232.0	5232.0	-5833466.0
16	14	24	49	614	78.0	-483379.0	5683.0	-5832904.0
16	14	24	49	614	79.0	-117162.0	5714.0	-5832749.0
16	14	24	49	614	80.0	216181.0	5789.0	-5833879.0
16	14	24	49	615	81.0	492270.0	6294.0	-5833786.0
16	14	24	49	615	82.0	717562.0	6472.0	-5833205.0
16	14	24	49	615	83.0	923683.0	6770.0	-5832602.0
16	14	24	49	616	84.0	1061583.0	7082.0	-5832707.0
16	14	24	49	616	85.0	1062724.0	7189.0	-5833715.0
16	14	24	49	616	86.0	888698.0	7299.0	-5833286.0
16	14	24	49	616	88.0	127192.0	7274.0	-5832693.0
16	14	24	49	617	89.0	-283481.0	6784.0	-5833157.0
16	14	24	49	617	90.0	-623717.0	5888.0	-5832632.0
16	14	24	49	617	91.0	-865610.0	5848.0	-5832702.0
16	14	24	49	617	92.0	-1008712.0	5226.0	-5833862.0
16	14	24	49	618	93.0	-1049156.0	5385.0	-5833454.0
16	14	24	49	649	94.0	-990881.0	5031.0	-5832868.0
16	14	24	49	649	95.0	-873606.0	4623.0	-5832275.0
16	14	24	49	649	96.0	-735306.0	5124.0	-5832948.0
16	14	24	49	650	97.0	-580084.0	6090.0	-5833914.0
16	14	24	49	650	98.0	-429364.0	5774.0	-5833426.0
16	14	24	49	651	99.0	-302591.0	5428.0	-5832761.0
16	14	24	49	652	100.0	-169832.0	5629.0	-5832402.0
16	14	24	49	652	101.0	-45144.0	5702.0	-5833687.0
16	14	24	49	653	102.0	58877.0	4903.0	-5833997.0
16	14	24	49	653	103.0	132387.0	5193.0	-5833357.0
16	14	24	49	654	104.0	186543.0	5347.0	-5832785.0
16	14	24	49	654	105.0	244309.0	4849.0	-5833421.0
16	14	24	49	655	106.0	272508.0	4697.0	-5834410.0
16	14	24	49	655	107.0	246901.0	4585.0	-5833898.0
16	14	24	49	656	108.0	196478.0	4504.0	-5833314.0
16	14	24	49	656	111.0	-1881.0	3039.0	-5834551.0
16	14	24	49	657	112.0	-13464.0	2018.0	-5833949.0
16	14	24	49	657	113.0	4922.0	1439.0	-5833352.0
16	14	24	49	658	114.0	55754.0	1303.0	-5833737.0
16	14	24	49	658	115.0	140498.0	1213.0	-5834215.0
16	14	24	49	659	116.0	238757.0	1198.0	-5833669.0
16	14	24	49	693	117.0	335013.0	793.0	-5833089.0
16	14	24	49	694	118.0	446283.0	1157.0	-5833636.0
16	14	24	49	694	119.0	516312.0	2243.0	-5834116.0
16	14	24	49	694	120.0	533316.0	2501.0	-5833605.0
16	14	24	49	694	121.0	522548.0	2433.0	-5832945.0
16	14	24	49	695	122.0	509259.0	2073.0	-5833445.0
16	14	24	49	695	123.0	486295.0	1463.0	-5834174.0
16	14	24	49	695	124.0	453836.0	1165.0	-5833704.0
16	14	24	49	695	125.0	413141.0	1492.0	-5833013.0
16	14	24	49	695	126.0	357578.0	1498.0	-5833271.0
16	14	24	49	696	127.0	302846.0	1408.0	-5834428.0
16	14	24	49	696	128.0	258529.0	1147.0	-5834113.0
16	14	24	49	696	129.0	211838.0	1426.0	-5833437.0
16	14	24	49	696	130.0	143102.0	1337.0	-5833016.0
16	14	24	49	697	131.0	80335.0	1076.0	-5833886.0
16	14	24	49	697	133.0	-7660.0	794.0	-5833509.0
16	14	24	49	697	134.0	-52981.0	304.0	-5832931.0
16	14	24	49	697	135.0	-83810.0	-352.0	-5833395.0
16	14	24	49	697	136.0	-93560.0	-149.0	-5834445.0
16	14	24	49	698	137.0	-56083.0	-400.0	-5833951.0
16	14	24	49	698	138.0	-29874.0	-447.0	-5833348.0
16	14	24	49	740	139.0	-19312.0	-257.0	-5833348.0
16	14	24	49	740	140.0	-7364.0	-422.0	-5834759.0
16	14	24	49	740	141.0	-39421.0	561.0	-5834466.0
16	14	24	49	740	142.0	-105640.0	1331.0	-5833861.0
16	14	24	49	741	143.0	-178112.0	1814.0	-5833301.0
16	14	24	49	741	144.0	-236877.0	1786.0	-5833815.0
16	14	24	49	741	145.0	-275696.0	2757.0	-5834227.0
16	14	24	49	741	146.0	-308310.0	4165.0	-5833677.0
16	14	24	49	742	147.0	-321546.0	4624.0	-5833051.0
16	14	24	49	742	148.0	-292140.0	4936.0	-5833669.0
16	14	24	49	742	149.0	-256340.0	5858.0	-5833994.0
16	14	24	49	742	150.0	-219037.0	6864.0	-5833458.0
16	14	24	49	742	151.0	-167624.0	7891.0	-5832988.0
16	14	24	49	742	152.0	-115929.0	9309.0	-5833694.0
16	14	24	49	743	153.0	-73867.0	10669.0	-5833661.0
16	14	24	49	788	155.0	-28111.0	15142.0	-5832931.0
16	14	24	49	789	156.0	-55297.0	17613.0	-5833776.0
16	14	24	49	789	157.0	-110218.0	18942.0	-5833423.0
16	14	24	49	789	158.0	-176298.0	21844.0	-5832822.0
16	14	24	49	789	159.0	-253525.0	24751.0	-5832839.0
16	14	24	49	790	160.0	-315147.0	27478.0	-5833494.0
16	14	24	49	790	161.0	-364796.0	30532.0	-5833046.0
16	14	24	49	790	162.0	-392293.0	34146.0	-5832448.0
16	14	24	49	790	163.0	-421573.0	38253.0	-5832549.0
16	14	24	49	791	164.0	-452409.0	43152.0	-5832901.0
16	14	24	49	791	165.0	-442834.0	47397.0	-5832364.0
16	14	24	49	791	166.0	-405127.0	51519.0	-5831942.0
16	14	24	49	791	167.0	-369529.0	56651.0	-5833191.0
16	14	24	49	792	168.0	-332683.0	60876.0	-5833402.0
16	14	24	49	792	169.0	-285834.0	64921.0	-5832817.0
16	14	24	49	792	170.0	-235765.0	68666.0	-5832259.0
16	14	24	49	792	171.0	-191008.0	72359.0	-5833018.0
16	14	24	49	793	172.0	-136319.0	76270.0	-5833635.0
16	14	24	49	793	173.0	-57417.0	80803.0	-5833091.0
16	14	24	49	793	174.0	41971.0	84536.0	-5832464.0
16	14	24	49	793	175.0	127791.0	88274.0	-5832391.0
16	14	24	49	794	176.0	197396.0	92288.0	-5833711.0
16	14	24	49	794	178.0	303208.0	98999.0	-5832918.0
16	14	24	49	794	179.0	357069.0	100948.0	-5832293.0
16	14	24	49	794	180.0	405401.0	103452.0	-5832944.0
16	14	24	49	794	181.0	434804.0	105748.0	-5833634.0
16	14	24	49	795	182.0	433326.0	108192.0	-5833100.0
16	14	24	49	795	183.0	420509.0	110293.0	-5832470.0
16	14	24	49	845	184.0	406651.0	112638.0	-5832439.0
16	14	24	49	845	185.0	408931.0	114715.0	-5833727.0
16	14	24	49	845	186.0	412720.0	117145.0	-5833575.0
16	14	24	49	846	187.0	390650.0	119437.0	-5832948.0
16	14	24	49	846	188.0	351705.0	120931.0	-5832477.0
16	14	24	49	846	189.0	320316.0	121323.0	-5833556.0
16	14	24	49	846	190.0	283880.0	121891.0	-5834241.0
16	14	24	49	847	191.0	248158.0	122505.0	-5833637.0
16	14	24	49	847	192.0	229191.0	122894.0	-5833059.0
16	14	24	49	847	193.0	200541.0	122739.0	-5833314.0
16	14	24	49	847	194.0	140388.0	122291.0	-5834684.0
16	14	24	49	848	195.0	73011.0	121987.0	-5834262.0
16	14	24	49	848	196.0	-1836.0	120768.0	-5833669.0
16	14	24	49	848	197.0	-87252.0	120386.0	-5833015.0
16	14	24	49	848	198.0	-178497.0	119256.0	-5833469.0
16	14	24	49	848	200.0	-452175.0	116271.0	-5834207.0
16	14	24	49	849	201.0	-692286.0	114200.0	-5833481.0
16	14	24	49	849	202.0	-953535.0	111521.0	-5833214.0
16	14	24	49	849	203.0	-1053677.0	109384.0	-5834297.0
16	14	24	49	849	204.0	-814757.0	107105.0	-5834308.0
16	14	24	49	849	205.0	-263097.0	104855.0	-5833710.0
16	14	24	49	849	206.0	356915.0	102208.0	-5833427.0
16	14	24	49	920	207.0	898137.0	99749.0	-5834656.0
16	14	24	49	921	208.0	1301090.0	97358.0	-5835151.0
16	14	24	49	921	209.0	1453262.0	95589.0	-5834480.0
16	14	24	49	921	210.0	1332743.0	93110.0	-5833910.0
16	14	24	49	922	211.0	1041506.0	90224.0	-5833429.0
16	14	24	49	922	212.0	689948.0	87608.0	-5834492.0
16	14	24	49	922	213.0	346600.0	83471.0	-5834456.0
16	14	24	49	923	214.0	64141.0	80325.0	-5833880.0
16	14	24	49	923	215.0	-159436.0	77043.0	-5833318.0
16	14	24	49	923	216.0	-353939.0	73557.0	-5834481.0
16	14	24	49	923	217.0	-503870.0	69801.0	-5834959.0
16	14	24	49	924	218.0	-604511.0	66681.0	-5834409.0
16	14	24	49	924	219.0	-646839.0	63550.0	-5833734.0
16	14	24	49	924	220.0	-643028.0	60043.0	-5834096.0
16	14	24	49	924	221.0	-602454.0	56474.0	-5835077.0
16	14	24	49	925	223.0	-428764.0	48603.0	-5834051.0
16	14	24	49	925	224.0	-342975.0	44362.0	-5833903.0
16	14	24	49	925	225.0	-284876.0	40339.0	-5834967.0
16	14	24	49	925	226.0	-287908.0	36249.0	-5834878.0
16	14	24	49	926	227.0	-341337.0	32876.0	-5834185.0
16	14	24	49	926	228.0	-409079.0	29532.0	-5833652.0
16	14	24	49	926	229.0	-476377.0	25559.0	-5834092.0
16	14	24	49	926	230.0	-504090.0	21650.0	-5835177.0
16	14	24	49	926	231.0	-495264.0	19520.0	-5834639.0
16	14	24	49	927	232.0	-447227.0	16523.0	-5834083.0
16	14	24	49	927	233.0	-353188.0	13180.0	-5833782.0
16	14	24	49	927	234.0	-239678.0	10187.0	-5835049.0
16	14	24	49	927	235.0	-128874.0	6983.0	-5835002.0
16	14	24	49	928	236.0	-24307.0	3783.0	-5834479.0
16	14	24	49	928	237.0	71524.0	501.0	-5833954.0
16	14	24	49	928	238.0	155114.0	-1876.0	-5834579.0
16	14	24	49	928	239.0	237203.0	-4597.0	-5834532.0
16	14	24	49	979	240.0	312996.0	-7239.0	-5834011.0
16	14	24	49	980	241.0	374411.0	-10019.0	-5833667.0
16	14	24	49	980	242.0	433453.0	-12471.0	-5834861.0
16	14	24	49	980	243.0	493824.0	-15134.0	-5834756.0
16	14	24	49	981	245.0	531795.0	-19358.0	-5833540.0
16	14	24	49	981	246.0	509088.0	-21512.0	-5833979.0
16	14	24	49	981	247.0	475107.0	-24345.0	-5834842.0
16	14	24	49	981	248.0	446017.0	-26781.0	-5834410.0
16	14	24	49	981	249.0	427245.0	-28701.0	-5833753.0
16	14	24	49	982	250.0	418930.0	-29339.0	-5833688.0
16	14	24	49	982	251.0	406279.0	-30017.0	-5834890.0
16	14	24	49	982	252.0	370474.0	-31681.0	-5834761.0
16	14	24	49	982	253.0	317873.0	-33331.0	-5834094.0
16	14	24	49	983	254.0	257183.0	-34607.0	-5833946.0
16	14	24	49	983	255.0	193256.0	-35979.0	-5835391.0
16	14	24	49	983	12.0	-243782.0	-46919.0	-5834007.0
16	14	24	49	983	13.0	-249082.0	-48479.0	-5833841.0
16	14	24	49	984	14.0	-236241.0	-49169.0	-5833356.0
16	14	24	49	984	15.0	-202984.0	-49937.0	-5834019.0
16	14	24	49	984	16.0	-152324.0	-50206.0	-5834674.0
16	14	24	49	984	17.0	-88732.0	-50267.0	-5834032.0
16	14	24	50	43	18.0	-46694.0	-50382.0	-5833474.0
16	14	24	50	43	19.0	-36724.0	-50158.0	-5833034.0
16	14	24	50	44	20.0	-60369.0	-49146.0	-5833787.0
16	14	24	50	44	21.0	-112519.0	-48881.0	-5833601.0
16	14	24	50	44	22.0	-180456.0	-49060.0	-5833047.0
16	14	24	50	44	23.0	-253264.0	-48161.0	-5832817.0
16	14	24	50	45	24.0	-332612.0	-47724.0	-5833696.0
16	14	24	50	45	25.0	-401274.0	-46959.0	-5833323.0
16	14	24	50	45	26.0	-454667.0	-46334.0	-5832724.0
16	14	24	50	46	27.0	-488827.0	-44955.0	-5833032.0
16	14	24	50	46	28.0	-497319.0	-43692.0	-5833813.0
16	14	24	50	46	29.0	-481458.0	-43263.0	-5833339.0
16	14	24	50	46	30.0	-439083.0	-41944.0	-5832785.0
16	14	24	50	46	31.0	-384511.0	-40831.0	-5833202.0
16	14	24	50	47	32.0	-328378.0	-39894.0	-5833696.0
16	14	24	50	47	34.0	-181059.0	-37602.0	-5832640.0
16	14	24	50	47	35.0	-94852.0	-36458.0	-5833509.0
16	14	24	50	47	36.0	-12958.0	-35469.0	-5833851.0
16	14	24	50	48	37.0	53099.0	-33420.0	-5833252.0
16	14	24	50	48	38.0	94608.0	-31585.0	-5832613.0
16	14	24	50	48	39.0	121587.0	-29907.0	-5832687.0
16	14	24	50	48	40.0	147563.0	-27930.0	-5833839.0
16	14	24	50	49	41.0	165084.0	-26121.0	-5833530.0
16	14	24	50	49	42.0	189262.0	-24031.0	-5832916.0
16	14	24	50	49	43.0	207025.0	-21039.0	-5832588.0
16	14	24	50	49	44.0	223284.0	-19144.0	-5833802.0
16	14	24	50	50	45.0	236820.0	-17442.0	-5833922.0
16	14	24	50	50	46.0	253087.0	-15332.0	-5833293.0
16	14	24	50	50	47.0	247439.0	-12732.0	-5832712.0
16	14	24	50	50	48.0	241214.0	-10974.0	-5833431.0
16	14	24	50	109	49.0	242423.0	-9227.0	-5834274.0
16	14	24	50	110	50.0	229358.0	-7266.0	-5833712.0
16	14	24	50	110	51.0	207771.0	-5146.0	-5833045.0
16	14	24	50	110	52.0	179372.0	-3293.0	-5832561.0
16	14	24	50	110	53.0	145724.0	-1459.0	-5833528.0
16	14	24	50	111	54.0	112198.0	-138.0	-5833989.0
16	14	24	50	111	55.0	109365.0	1370.0	-5833372.0
16	14	24	50	111	57.0	152921.0	5013.0	-5832930.0
16	14	24	50	111	58.0	182776.0	6059.0	-5833496.0
16	14	24	50	112	59.0	192010.0	7148.0	-5833016.0
16	14	24	50	112	60.0	195006.0	8656.0	-5832424.0
16	14	24	50	112	61.0	179679.0	10429.0	-5832898.0
16	14	24	50	112	62.0	170568.0	11726.0	-5833124.0
16	14	24	50	112	63.0	175414.0	12788.0	-5832587.0
16	14	24	50	113	64.0	165454.0	13878.0	-5832631.0
16	14	24	50	113	65.0	139674.0	15606.0	-5833872.0
16	14	24	50	113	66.0	94021.0	16496.0	-5833462.0
16	14	24	50	113	67.0	29297.0	17318.0	-5832859.0
16	14	24	50	113	68.0	-53414.0	17826.0	-5832217.0
16	14	24	50	114	69.0	-127626.0	18406.0	-5832488.0
16	14	24	50	114	70.0	-197520.0	19173.0	-5833373.0
16	14	24	50	114	71.0	-228661.0	19431.0	-5832946.0
16	14	24	50	114	72.0	-215014.0	19766.0	-5832309.0
16	14	24	50	114	73.0	-177819.0	20593.0	-5832187.0
16	14	24	50	115	74.0	-140299.0	20579.0	-5833308.0
16	14	24	50	115	75.0	-82710.0	20779.0	-5833149.0
16	14	24	50	115	76.0	-31230.0	21017.0	-5832511.0
16	14	24	50	115	77.0	8830.0	20888.0	-5832262.0
16	14	24	50	116	79.0	46771.0	21411.0	-5833269.0
16	14	24	50	116	80.0	45543.0	20612.0	-5832599.0
16	14	24	50	116	81.0	38987.0	19341.0	-5832031.0
16	14	24	50	116	82.0	28039.0	19068.0	-5832605.0
16	14	24	50	117	83.0	7177.0	18516.0	-5833496.0
16	14	24	50	117	84.0	-9872.0	17632.0	-5832966.0
16	14	24	50	117	85.0	-53997.0	17214.0	-5832315.0
16	14	24	50	172	86.0	-88673.0	16794.0	-5832098.0
16	14	24	50	172	87.0	-115926.0	16759.0	-5833350.0
16	14	24	50	173	88.0	-128139.0	17176.0	-5833242.0
16	14	24	50	173	89.0	-110589.0	16126.0	-5832621.0
16	14	24	50	173	90.0	-65920.0	15227.0	-5832058.0
16	14	24	50	173	91.0	-8730.0	14501.0	-5832316.0
16	14	24	50	173	92.0	41827.0	13840.0	-5832682.0
16	14	24	50	174	93.0	81322.0	12414.0	-5832189.0
16	14	24	50	174	94.0	125955.0	11343.0	-5831991.0
16	14	24	50	174	95.0	159633.0	10113.0	-5833365.0
16	14	24	50	174	96.0	185823.0	9244.0	-5833255.0
16	14	24	50	175	97.0	208791.0	8369.0	-5832677.0
16	14	24	50	175	98.0	234109.0	7262.0	-5832025.0
16	14	24	50	175	99.0	260736.0	6389.0	-5832139.0
16	14	24	50	176	100.0	276204.0	5414.0	-5833392.0
16	14	24	50	176	102.0	330089.0	2412.0	-5832461.0
16	14	24	50	176	103.0	350470.0	759.0	-5832031.0
16	14	24	50	176	104.0	352551.0	-546.0	-5833122.0
16	14	24	50	177	105.0	353541.0	-1818.0	-5833296.0
16	14	24	50	177	106.0	341160.0	-3008.0	-5832706.0
16	14	24	50	177	107.0	310326.0	-3959.0	-5832223.0
16	14	24	50	177	108.0	269054.0	-4341.0	-5833090.0
16	14	24	50	178	109.0	230367.0	-5081.0	-5833453.0
16	14	24	50	178	110.0	182793.0	-5151.0	-5832835.0
16	14	24	50	178	111.0	118301.0	-6201.0	-5832215.0
16	14	24	50	232	112.0	49994.0	-8279.0	-5832582.0
16	14	24	50	232	113.0	-32596.0	-9600.0	-5833688.0
16	14	24	50	232	114.0	-97813.0	-10274.0	-5833259.0
16	14	24	50	233	115.0	-141278.0	-11671.0	-5832576.0
16	14	24	50	233	116.0	-187957.0	-12167.0	-5832190.0
16	14	24	50	233	117.0	-228437.0	-12402.0	-5833288.0
16	14	24	50	233	118.0	-241585.0	-13232.0	-5833687.0
16	14	24	50	234	119.0	-219183.0	-15049.0	-5833028.0
16	14	24	50	234	120.0	-189991.0	-16193.0	-5832461.0
16	14	24	50	234	121.0	-160475.0	-16937.0	-5832242.0
16	14	24	50	234	122.0	-140229.0	-17982.0	-5833026.0
16	14	24	50	235	124.0	-129316.0	-19278.0	-5832202.0
16	14	24	50	235	125.0	-139574.0	-20817.0	-5833011.0
16	14	24	50	235	126.0	-165986.0	-22020.0	-5833372.0
16	14	24	50	235	127.0	-184169.0	-22867.0	-5832752.0
16	14	24	50	236	128.0	-197789.0	-23811.0	-5832191.0
16	14	24	50	236	129.0	-205337.0	-24726.0	-5832239.0
16	14	24	50	236	130.0	-210338.0	-25681.0	-5832847.0
16	14	24	50	303	131.0	-192068.0	-26193.0	-5832337.0
16	14	24	50	303	132.0	-182301.0	-26332.0	-5831741.0
16	14	24	50	303	133.0	-168829.0	-26086.0	-5831951.0
16	14	24	50	304	134.0	-178163.0	-26602.0	-5832634.0
16	14	24	50	304	135.0	-187647.0	-26920.0	-5832132.0
16	14	24	50	304	136.0	-200662.0	-27297.0	-5831551.0
16	14	24	50	305	137.0	-213582.0	-27666.0	-5832060.0
16	14	24	50	305	138.0	-225641.0	-27910.0	-5832484.0
16	14	24	50	305	139.0	-241987.0	-28994.0	-5831956.0
16	14	24	50	305	140.0	-270828.0	-29488.0	-5831448.0
16	14	24	50	306	141.0	-294503.0	-30014.0	-5832140.0
16	14	24	50	306	142.0	-319606.0	-29996.0	-5832095.0
16	14	24	50	306	143.0	-336436.0	-29567.0	-5831542.0
16	14	24	50	306	144.0	-346897.0	-29774.0	-5831708.0
16	14	24	50	307	145.0	-349371.0	-30330.0	-5832655.0
16	14	24	50	307	169.0	-62713.0	-27515.0	-5832324.0
16	14	24	50	307	170.0	-2608.0	-27557.0	-5831804.0
16	14	24	50	307	171.0	65608.0	-28216.0	-5832705.0
16	14	24	50	307	172.0	104762.0	-27609.0	-5833440.0
16	14	24	50	308	173.0	126869.0	-26377.0	-5832920.0
16	14	24	50	308	174.0	133287.0	-26027.0	-5832287.0
16	14	24	50	377	175.0	122608.0	-25874.0	-5832114.0
16	14	24	50	377	176.0	90417.0	-25027.0	-5833294.0
16	14	24	50	378	177.0	44892.0	-23999.0	-5833171.0
16	14	24	50	378	178.0	-7349.0	-22859.0	-5832532.0
16	14	24	50	378	179.0	-74509.0	-22149.0	-5831921.0
16	14	24	50	378	180.0	-135638.0	-21612.0	-5832390.0
16	14	24	50	379	181.0	-193791.0	-20832.0	-5833382.0
16	14	24	50	379	182.0	-232609.0	-20058.0	-5832879.0
16	14	24	50	379	183.0	-249586.0	-19052.0	-5832236.0
16	14	24	50	379	184.0	-236443.0	-18512.0	-5831980.0
16	14	24	50	380	185.0	-204378.0	-17824.0	-5833098.0
16	14	24	50	380	186.0	-157770.0	-17073.0	-5833049.0
16	14	24	50	380	187.0	-90652.0	-16297.0	-5832449.0
16	14	24	50	380	188.0	185.0	-15809.0	-5831851.0
16	14	24	50	381	189.0	120849.0	-15449.0	-5832141.0
16	14	24	50	381	191.0	329343.0	-14138.0	-5832211.0
16	14	24	50	381	192.0	388581.0	-13643.0	-5831637.0
16	14	24	50	381	193.0	345201.0	-14172.0	-5832159.0
16	14	24	50	382	194.0	116126.0	-13794.0	-5832379.0
16	14	24	50	382	195.0	-226490.0	-12791.0	-5831758.0
16	14	24	50	382	196.0	-563187.0	-11928.0	-5831479.0
16	14	24	50	382	197.0	-819557.0	-11102.0	-5832785.0
16	14	24	50	383	198.0	-932376.0	-10355.0	-5832646.0
16	14	24	50	383	199.0	-927096.0	-9091.0	-5832061.0
16	14	24	50	383	200.0	-831124.0	-7674.0	-5831434.0
16	14	24	50	383	201.0	-638387.0	-7076.0	-5831915.0
16	14	24	50	383	202.0	-324477.0	-6358.0	-5832856.0
16	14	24	50	384	203.0	106148.0	-5463.0	-5832445.0
16	14	24	50	384	204.0	623226.0	-4520.0	-5831830.0
16	14	24	50	384	205.0	1144296.0	-3274.0	-5832016.0
16	14	24	50	385	206.0	1515550.0	-2550.0	-5833371.0
16	14	24	50	385	207.0	1625789.0	-2292.0	-5833104.0
16	14	24	50	385	208.0	1390878.0	-1358.0	-5832427.0
16	14	24	50	385	209.0	839219.0	-1159.0	-5831984.0
16	14	24	50	386	214.0	-991272.0	1976.0	-5832048.0
16	14	24	50	386	215.0	-806395.0	1596.0	-5833077.0
16	14	24	50	386	216.0	-538162.0	1513.0	-5832733.0
16	14	24	50	386	217.0	-192326.0	1954.0	-5832158.0
16	14	24	50	387	218.0	177724.0	2984.0	-5831979.0
16	14	24	50	387	219.0	502823.0	3441.0	-5833204.0
16	14	24	50	457	220.0	769863.0	3896.0	-5833188.0
16	14	24	50	457	221.0	934001.0	4458.0	-5832597.0
16	14	24	50	458	222.0	972604.0	5996.0	-5832012.0
16	14	24	50	458	223.0	879519.0	7080.0	-5832277.0
16	14	24	50	458	224.0	678062.0	7808.0	-5832847.0
16	14	24	50	458	225.0	404703.0	8479.0	-5832337.0
16	14	24	50	459	226.0	115712.0	8790.0	-5831691.0
16	14	24	50	459	227.0	-118879.0	8738.0	-5832097.0
16	14	24	50	459	228.0	-279426.0	10133.0	-5832659.0
16	14	24	50	459	229.0	-374054.0	10207.0	-5832173.0
16	14	24	50	460	230.0	-410034.0	10707.0	-5831612.0
16	14	24	50	460	231.0	-402416.0	10904.0	-5832588.0
16	14	24	50	460	232.0	-361457.0	10582.0	-5833183.0
16	14	24	50	461	233.0	-297011.0	10968.0	-5832623.0
16	14	24	50	461	234.0	-233613.0	11548.0	-5831978.0
16	14	24	50	461	236.0	-131160.0	12383.0	-5833580.0
16	14	24	50	462	237.0	-104147.0	12561.0	-5833165.0
16	14	24	50	462	238.0	-85575.0	12108.0	-5832501.0
16	14	24	50	462	239.0	-72676.0	12591.0	-5832197.0
16	14	24	50	462	240.0	-46197.0	12858.0	-5833415.0
16	14	24	50	463	241.0	-2204.0	13842.0	-5833579.0
16	14	24	50	463	242.0	32797.0	14000.0	-5832952.0
16	14	24	50	463	243.0	51961.0	13728.0	-5832367.0
16	14	24	50	464	244.0	52674.0	13808.0	-5832728.0
16	14	24	50	464	245.0	42382.0	14864.0	-5833891.0
16	14	24	50	464	246.0	11389.0	14901.0	-5833456.0
16	14	24	50	464	247.0	-29263.0	14932.0	-5832826.0
16	14	24	50	465	248.0	-60726.0	14943.0	-5832236.0
16	14	24	50	465	249.0	-86227.0	15411.0	-5832741.0
16	14	24	50	465	250.0	-88222.0	15716.0	-5833544.0
16	14	24	50	465	251.0	-71849.0	15344.0	-5833021.0
16	14	24	50	466	252.0	-34547.0	14684.0	-5832442.0
16	14	24	50	466	253.0	24594.0	14952.0	-5832762.0
16	14	24	50	466	254.0	97554.0	15039.0	-5833147.0
16	14	24	50	467	255.0	180543.0	15116.0	-5832623.0
16	14	24	50	467	0.0	276872.0	15191.0	-5832082.0
16	14	24	50	467	1.0	376613.0	14579.0	-5832777.0
16	14	24	50	467	3.0	475471.0	14409.0	-5832472.0
16	14	24	50	468	4.0	479354.0	13524.0	-5831987.0
16	14	24	50	468	5.0	472519.0	12638.0	-5833191.0
16	14	24	50	468	6.0	442733.0	12593.0	-5833526.0
16	14	24	50	469	7.0	408304.0	12450.0	-5832968.0
16	14	24	50	469	8.0	369553.0	12222.0	-5832304.0
16	14	24	50	525	9.0	318246.0	12128.0	-5832607.0
16	14	24	50	526	10.0	259141.0	12279.0	-5833524.0
16	14	24	50	526	11.0	194593.0	13075.0	-5833121.0
16	14	24	50	526	12.0	126597.0	13067.0	-5832447.0
16	14	24	50	526	13.0	66362.0	12959.0	-5832225.0
16	14	24	50	527	14.0	28924.0	12890.0	-5833321.0
16	14	24	50	527	15.0	1904.0	12559.0	-5833328.0
16	14	24	50	527	16.0	-7986.0	12008.0	-5832687.0
16	14	24	50	527	17.0	-2519.0	11408.0	-5832291.0
16	14	24	50	528	18.0	8226.0	11059.0	-5833330.0
16	14	24	50	528	19.0	17218.0	11203.0	-5833672.0
16	14	24	50	528	20.0	25964.0	10971.0	-5833055.0
16	14	24	50	529	21.0	19783.0	11023.0	-5832441.0
16	14	24	50	529	22.0	26071.0	11402.0	-5832238.0
16	14	24	50	529	23.0	22884.0	11528.0	-5833529.0
16	14	24	50	529	25.0	7979.0	11453.0	-5832798.0
16	14	24	50	530	26.0	-1545.0	11303.0	-5832278.0
16	14	24	50	530	27.0	-12546.0	10831.0	-5833169.0
16	14	24	50	530	28.0	-18977.0	11109.0	-5833709.0
16	14	24	50	530	29.0	5530.0	11506.0	-5833137.0
16	14	24	50	531	30.0	43690.0	11929.0	-5832522.0
16	14	24	50	531	31.0	82606.0	12624.0	-5832751.0
16	14	24	50	597	32.0	115727.0	13943.0	-5833876.0
16	14	24	50	597	33.0	147833.0	15866.0	-5833482.0
16	14	24	50	597	34.0	162674.0	18279.0	-5832871.0
16	14	24	50	598	35.0	135972.0	19928.0	-5832289.0
16	14	24	50	598	36.0	86383.0	21355.0	-5833123.0
16	14	24	50	598	37.0	40865.0	24000.0	-5833571.0
16	14	24	50	598	38.0	-6261.0	26724.0	-5833002.0
16	14	24	50	599	39.0	-49694.0	29796.0	-5832376.0
16	14	24	50	599	40.0	-75888.0	32512.0	-5832899.0
16	14	24	50	599	41.0	-81707.0	35533.0	-5833884.0
16	14	24	50	599	42.0	-76414.0	39039.0	-5833427.0
16	14	24	50	600	43.0	-63354.0	42406.0	-5832806.0
16	14	24	50	600	44.0	-48326.0	46074.0	-5832858.0
16	14	24	50	600	45.0	-42754.0	49376.0	-5834121.0
16	14	24	50	601	46.0	-46441.0	53321.0	-5833861.0
16	14	24	50	601	70.0	210963.0	113915.0	-5833329.0
16	14	24	50	601	71.0	204964.0	113804.0	-5833053.0
16	14	24	50	602	72.0	192218.0	112744.0	-5834278.0
16	14	24	50	602	73.0	174394.0	112533.0	-5834107.0
16	14	24	50	602	74.0	162069.0	111760.0	-5833577.0
16	14	24	50	603	75.0	153668.0	111005.0	-5833127.0
16	14	24	50	603	76.0	126408.0	110043.0	-5834185.0
16	14	24	50	665	77.0	91833.0	108761.0	-5834261.0
16	14	24	50	666	78.0	53074.0	107466.0	-5833705.0
16	14	24	50	666	79.0	3311.0	106979.0	-5833060.0
16	14	24	50	666	80.0	-64632.0	105365.0	-5833670.0
16	14	24	50	666	81.0	-130725.0	103233.0	-5834500.0
16	14	24	50	667	82.0	-190549.0	100589.0	-5834036.0
16	14	24	50	667	83.0	-234311.0	98371.0	-5833337.0
16	14	24	50	734	84.0	-276234.0	96381.0	-5833068.0
16	14	24	50	735	85.0	-351284.0	94466.0	-5834290.0
16	14	24	50	735	86.0	-492181.0	91529.0	-5834462.0
16	14	24	50	735	87.0	-711617.0	88506.0	-5833789.0
16	14	24	50	735	88.0	-995628.0	85453.0	-5833234.0
16	14	24	50	736	89.0	-1069901.0	82127.0	-5833696.0
16	14	24	50	736	90.0	-786151.0	79261.0	-5834877.0
16	14	24	50	736	91.0	-208677.0	75446.0	-5834422.0
16	14	24	50	737	93.0	761138.0	68647.0	-5833590.0
16	14	24	50	737	94.0	1061391.0	63684.0	-5834533.0
16	14	24	50	737	95.0	1206750.0	59523.0	-5834385.0
16	14	24	50	737	96.0	1179964.0	55953.0	-5833851.0
16	14	24	50	738	97.0	1016628.0	53458.0	-5833961.0
16	14	24	50	738	98.0	772542.0	49938.0	-5834749.0
16	14	24	50	738	99.0	514633.0	45542.0	-5834160.0
16	14	24	50	738	115.0	156180.0	-15489.0	-5834552.0
16	14	24	50	739	116.0	223937.0	-19257.0	-5833973.0
16	14	24	50	739	117.0	220926.0	-23398.0	-5833330.0
16	14	24	50	739	118.0	179989.0	-26554.0	-5833961.0
16	14	24	50	740	119.0	131311.0	-29147.0	-5834847.0
16	14	24	50	740	120.0	83161.0	-31667.0	-5834392.0
16	14	24	50	740	121.0	47360.0	-34316.0	-5833732.0
16	14	24	50	740	122.0	33742.0	-37036.0	-5833619.0
16	14	24	50	741	123.0	53774.0	-39463.0	-5834904.0
16	14	24	50	741	124.0	96534.0	-40855.0	-5834856.0
16	14	24	50	741	125.0	161439.0	-42841.0	-5834199.0
16	14	24	50	741	126.0	233063.0	-44819.0	-5833861.0
16	14	24	50	742	127.0	298008.0	-46899.0	-5835004.0
16	14	24	50	742	128.0	362928.0	-48657.0	-5835282.0
16	14	24	50	742	129.0	433494.0	-50366.0	-5834633.0
16	14	24	50	742	130.0	502314.0	-51882.0	-5834067.0
16	14	24	50	743	131.0	571496.0	-53736.0	-5833676.0
16	14	24	50	743	132.0	633698.0	-55414.0	-5834464.0
16	14	24	50	743	133.0	658949.0	-57095.0	-5834206.0
16	14	24	50	743	134.0	640548.0	-58454.0	-5833632.0
16	14	24	50	743	135.0	582696.0	-59612.0	-5833694.0
16	14	24	50	744	136.0	505812.0	-60861.0	-5834946.0
16	14	24	50	744	138.0	328165.0	-62357.0	-5833990.0
16	14	24	50	744	139.0	241742.0	-64163.0	-5833654.0
16	14	24	50	744	140.0	168959.0	-65430.0	-5834762.0
16	14	24	50	745	141.0	113199.0	-65947.0	-5834682.0
16	14	24	50	745	142.0	78959.0	-66024.0	-5834110.0
16	14	24	50	745	143.0	67358.0	-66433.0	-5833582.0
16	14	24	50	802	144.0	56296.0	-66799.0	-5834591.0
16	14	24	50	803	145.0	30468.0	-67254.0	-5834927.0
16	14	24	50	803	146.0	-10682.0	-67209.0	-5834354.0
16	14	24	50	803	147.0	-55861.0	-67147.0	-5833667.0
16	14	24	50	804	148.0	-97426.0	-67175.0	-5833531.0
16	14	24	50	804	149.0	-137956.0	-67538.0	-5834597.0
16	14	24	50	804	150.0	-179215.0	-67832.0	-5834497.0
16	14	24	50	805	151.0	-221526.0	-68103.0	-5833819.0
16	14	24	50	805	152.0	-232177.0	-68098.0	-5833331.0
16	14	24	50	805	153.0	-223792.0	-68479.0	-5834037.0
16	14	24	50	806	154.0	-206976.0	-68182.0	-5834747.0
16	14	24	50	806	155.0	-175418.0	-67926.0	-5834157.0
16	14	24	50	806	156.0	-133783.0	-68641.0	-5833637.0
16	14	24	50	806	157.0	-89430.0	-67921.0	-5834067.0
16	14	24	50	807	158.0	-54559.0	-67285.0	-5835127.0
16	14	24	50	807	160.0	-7089.0	-67341.0	-5834029.0
16	14	24	50	807	161.0	2994.0	-67151.0	-5833786.0
16	14	24	50	807	162.0	13861.0	-67126.0	-5835028.0
16	14	24	50	808	163.0	25979.0	-66739.0	-5834798.0
16	14	24	50	808	164.0	42352.0	-66104.0	-5834231.0
16	14	24	50	808	165.0	65977.0	-65177.0	-5833550.0
16	14	24	50	808	166.0	89183.0	-64282.0	-5833860.0
16	14	24	50	809	167.0	106142.0	-63247.0	-5835013.0
16	14	24	50	809	168.0	131096.0	-61866.0	-5834679.0
16	14	24	50	809	169.0	156581.0	-59384.0	-5833997.0
16	14	24	50	810	170.0	179289.0	-57516.0	-5833782.0
16	14	24	50	810	171.0	189763.0	-56111.0	-5834952.0
16	14	24	50	810	172.0	183864.0	-54847.0	-5834992.0
16	14	24	50	811	173.0	169886.0	-53279.0	-5834330.0
16	14	24	50	811	174.0	138815.0	-51625.0	-5833801.0
16	14	24	50	811	175.0	92688.0	-50487.0	-5834231.0
16	14	24	50	812	176.0	23785.0	-48807.0	-5835080.0
16	14	24	50	812	177.0	-48657.0	-46782.0	-5834511.0
16	14	24	50	874	178.0	-110650.0	-44998.0	-5833935.0
16	14	24	50	874	179.0	-159064.0	-43052.0	-5833757.0
16	14	24	50	874	180.0	-187429.0	-41429.0	-5835293.0
16	14	24	50	875	181.0	-203222.0	-39354.0	-5835206.0
16	14	24	50	875	183.0	-190086.0	-35742.0	-5834009.0
16	14	24	50	875	184.0	-168936.0	-34872.0	-5834832.0
16	14	24	50	876	185.0	-151655.0	-32907.0	-5835520.0
16	14	24	50	876	186.0	-133969.0	-30506.0	-5834982.0
16	14	24	50	876	187.0	-123485.0	-28684.0	-5834342.0
16	14	24	50	876	188.0	-126816.0	-26831.0	-5834446.0
16	14	24	50	877	189.0	-137192.0	-25117.0	-5835551.0
16	14	24	50	877	190.0	-136674.0	-22936.0	-5835234.0
16	14	24	50	877	191.0	-130617.0	-20477.0	-5834601.0
16	14	24	50	878	192.0	-125452.0	-18489.0	-5834269.0
16	14	24	50	878	193.0	-128969.0	-15850.0	-5835371.0
16	14	24	50	878	194.0	-133148.0	-14189.0	-5835433.0
16	14	24	50	879	195.0	-122081.0	-12896.0	-5834774.0
16	14	24	50	879	196.0	-92389.0	-11153.0	-5834173.0
16	14	24	50	879	197.0	-39308.0	-9853.0	-5834552.0
16	14	24	50	879	198.0	10408.0	-8084.0	-5835401.0
16	14	24	50	880	199.0	52161.0	-6356.0	-5834905.0
16	14	24	50	880	200.0	96507.0	-5417.0	-5834272.0
16	14	24	50	880	201.0	139169.0	-4031.0	-5834229.0
16	14	24	50	881	202.0	162381.0	-2760.0	-5835578.0
16	14	24	50	881	203.0	160529.0	-1396.0	-5835417.0
16	14	24	50	881	205.0	106876.0	1300.0	-5834172.0
16	14	24	50	881	206.0	61763.0	1567.0	-5834501.0
16	14	24	50	882	207.0	23512.0	2080.0	-5835615.0
16	14	24	50	882	208.0	-2597.0	3078.0	-5835144.0
16	14	24	50	882	209.0	-1610.0	4058.0	-5834575.0
16	14	24	50	882	210.0	23826.0	5436.0	-5834714.0
16	14	24	50	948	211.0	70137.0	6324.0	-5835795.0
16	14	24	50	949	212.0	129478.0	6754.0	-5835369.0
16	14	24	50	949	213.0	187363.0	7649.0	-5834807.0
16	14	24	50	949	214.0	231236.0	8586.0	-5834167.0
16	14	24	50	949	215.0	263565.0	9619.0	-5834841.0
16	14	24	50	950	216.0	278312.0	10216.0	-5835518.0
16	14	24	50	950	217.0	280478.0	10773.0	-5835037.0
16	14	24	50	950	218.0	269884.0	10581.0	-5834372.0
16	14	24	50	951	219.0	252255.0	10654.0	-5834429.0
16	14	24	50	951	220.0	236878.0	10937.0	-5835639.0
16	14	24	50	951	221.0	209331.0	11436.0	-5835416.0
16	14	24	50	951	222.0	168036.0	11572.0	-5834786.0
16	14	24	50	952	223.0	127498.0	11868.0	-5834516.0
16	14	24	50	952	224.0	84366.0	11809.0	-5835489.0
16	14	24	50	952	225.0	39949.0	11534.0	-5835563.0
16	14	24	50	953	227.0	-45084.0	11101.0	-5834325.0
16	14	24	50	953	228.0	-66167.0	10428.0	-5834499.0
16	14	24	50	953	229.0	-72317.0	8886.0	-5835792.0
16	14	24	50	953	230.0	-67264.0	7902.0	-5835379.0
16	14	24	50	954	231.0	-59071.0	7691.0	-5834861.0
16	14	24	50	954	232.0	-45819.0	7179.0	-5834393.0
16	14	24	50	954	233.0	-27518.0	6593.0	-5835141.0
16	14	24	51	15	234.0	10837.0	5672.0	-5835022.0
16	14	24	51	16	235.0	54080.0	5288.0	-5834466.0
16	14	24	51	16	236.0	89851.0	6279.0	-5834169.0
16	14	24	51	16	237.0	106353.0	6151.0	-5835016.0
16	14	24	51	16	238.0	111019.0	5661.0	-5834727.0
16	14	24	51	17	239.0	119563.0	5056.0	-5834171.0
16	14	24	51	17	240.0	131629.0	4116.0	-5834816.0
16	14	24	51	17	241.0	152682.0	3750.0	-5835891.0
16	14	24	51	18	242.0	187868.0	3364.0	-5835352.0
16	14	24	51	18	243.0	233109.0	3139.0	-5834756.0
16	14	24	51	18	244.0	283101.0	2578.0	-5834291.0
16	14	24	51	18	245.0	339462.0	2228.0	-5835524.0
16	14	24	51	19	246.0	373423.0	1435.0	-5835871.0
16	14	24	51	19	247.0	380944.0	924.0	-5835295.0
16	14	24	51	19	248.0	371864.0	6.0	-5834639.0
16	14	24	51	20	16.0	-91906.0	-17104.0	-5836359.0
16	14	24	51	20	17.0	-106437.0	-17597.0	-5835784.0
16	14	24	51	20	18.0	-104779.0	-19357.0	-5835100.0
16	14	24	51	20	19.0	-64733.0	-20378.0	-5835441.0
16	14	24	51	21	20.0	4393.0	-21272.0	-5836399.0
16	14	24	51	21	21.0	89926.0	-21856.0	-5836024.0
16	14	24	51	21	22.0	163724.0	-22532.0	-5835341.0
16	14	24	51	87	23.0	224019.0	-23424.0	-5835125.0
16	14	24	51	87	24.0	252744.0	-23606.0	-5836204.0
16	14	24	51	88	25.0	250330.0	-23241.0	-5836196.0
16	14	24	51	88	26.0	245983.0	-23452.0	-5835522.0
16	14	24	51	88	27.0	256476.0	-23988.0	-5835192.0
16	14	24	51	89	28.0	285579.0	-24516.0	-5836309.0
16	14	24	51	89	29.0	316750.0	-25611.0	-5836597.0
16	14	24	51	89	30.0	337064.0	-26177.0	-5835940.0
16	14	24	51	89	31.0	368214.0	-26482.0	-5835422.0
16	14	24	51	90	32.0	405975.0	-27154.0	-5836025.0
16	14	24	51	90	33.0	441072.0	-27618.0	-5837053.0
16	14	24	51	90	34.0	469376.0	-27971.0	-5836476.0
16	14	24	51	90	35.0	501074.0	-27927.0	-5835937.0
16	14	24	51	91	36.0	530574.0	-28362.0	-5835262.0
16	14	24	51	91	37.0	544188.0	-28209.0	-5835888.0
16	14	24	51	92	39.0	529825.0	-26933.0	-5836307.0
16	14	24	51	92	40.0	517051.0	-27099.0	-5835646.0
16	14	24	51	92	41.0	490872.0	-27181.0	-5835697.0
16	14	24	51	92	42.0	459084.0	-26347.0	-5836984.0
16	14	24	51	93	43.0	414194.0	-25516.0	-5836792.0
16	14	24	51	93	44.0	365976.0	-24244.0	-5836117.0
16	14	24	51	93	45.0	301912.0	-22829.0	-5835841.0
16	14	24	51	94	46.0	224233.0	-22203.0	-5836971.0
16	14	24	51	94	47.0	150824.0	-21247.0	-5837092.0
16	14	24	51	94	48.0	77180.0	-20083.0	-5836391.0
16	14	24	51	94	49.0	7048.0	-19301.0	-5835846.0
16	14	24	51	94	50.0	-66454.0	-17992.0	-5836431.0
16	14	24	51	95	51.0	-124784.0	-17704.0	-5837454.0
16	14	24	51	95	52.0	-178605.0	-17022.0	-5836869.0
16	14	24	51	95	61.0	-512342.0	-15092.0	-5837184.0
16	14	24	51	95	62.0	-528354.0	-15017.0	-5836537.0
16	14	24	51	96	63.0	-540653.0	-15722.0	-5836364.0
16	14	24	51	96	64.0	-548974.0	-15513.0	-5837384.0
16	14	24	51	96	65.0	-566517.0	-15277.0	-5837274.0
16	14	24	51	97	66.0	-573437.0	-15283.0	-5836636.0
16	14	24	51	97	67.0	-564723.0	-15142.0	-5836067.0
16	14	24	51	152	68.0	-543114.0	-14749.0	-5836517.0
16	14	24	51	152	69.0	-521030.0	-13956.0	-5837567.0
16	14	24	51	153	70.0	-518634.0	-12401.0	-5837056.0
16	14	24	51	153	71.0	-523990.0	-12054.0	-5836457.0
16	14	24	51	153	72.0	-518059.0	-12173.0	-5836173.0
16	14	24	51	154	73.0	-485041.0	-11814.0	-5837447.0
16	14	24	51	154	74.0	-429272.0	-11487.0	-5837487.0
16	14	24	51	154	75.0	-370286.0	-11481.0	-5836918.0
16	14	24	51	154	76.0	-299718.0	-11375.0	-5836329.0
16	14	24	51	155	77.0	-218461.0	-11545.0	-5836683.0
16	14	24	51	155	78.0	-152329.0	-11272.0	-5837108.0
16	14	24	51	155	79.0	-91533.0	-10647.0	-5836613.0
16	14	24	51	155	80.0	-27796.0	-10409.0	-5836072.0
16	14	24	51	156	81.0	40104.0	-10067.0	-5836620.0
16	14	24	51	156	82.0	103554.0	-9522.0	-5836717.0
16	14	24	51	156	84.0	251474.0	-9072.0	-5835639.0
16	14	24	51	204	85.0	322081.0	-9416.0	-5836782.0
16	14	24	51	204	86.0	344599.0	-9632.0	-5837090.0
16	14	24	51	256	87.0	275826.0	-9484.0	-5836531.0
16	14	24	51	257	88.0	50316.0	-9247.0	-5835839.0
16	14	24	51	257	89.0	-292529.0	-8659.0	-5836116.0
16	14	24	51	257	90.0	-670564.0	-8208.0	-5837024.0
16	14	24	51	258	91.0	-963051.0	-6918.0	-5836612.0
16	14	24	51	258	92.0	-1118567.0	-6110.0	-5835934.0
16	14	24	51	311	93.0	-1146724.0	-5729.0	-5835999.0
16	14	24	51	312	94.0	-1079552.0	-5717.0	-5837248.0
16	14	24	51	312	95.0	-916272.0	-4784.0	-5837041.0
16	14	24	51	312	96.0	-638763.0	-4474.0	-5836411.0
16	14	24	51	313	97.0	-242357.0	-3905.0	-5836029.0
16	14	24	51	313	98.0	244126.0	-2984.0	-5836927.0
16	14	24	51	313	99.0	778081.0	-2457.0	-5837389.0
16	14	24	51	314	100.0	1246496.0	-1712.0	-5836809.0
16	14	24	51	314	107.0	-815163.0	3818.0	-5837121.0
16	14	24	51	314	129.0	-317317.0	19752.0	-5837969.0
16	14	24	51	315	151.0	-63302.0	19377.0	-5837300.0
16	14	24	51	315	152.0	-22138.0	18759.0	-5838470.0
16	14	24	51	315	153.0	29376.0	18011.0	-5837927.0
16	14	24	51	315	154.0	85534.0	17407.0	-5837401.0
16	14	24	51	316	155.0	145869.0	16441.0	-5837187.0
16	14	24	51	316	156.0	189423.0	15567.0	-5838131.0
16	14	24	51	316	157.0	219733.0	16036.0	-5837816.0
16	14	24	51	316	158.0	257454.0	15403.0	-5837241.0
16	14	24	51	317	159.0	309482.0	15683.0	-5837298.0
16	14	24	51	317	160.0	368242.0	15976.0	-5838526.0
16	14	24	51	317	161.0	422814.0	15121.0	-5838148.0
16	14	24	51	318	162.0	478333.0	15008.0	-5837580.0
16	14	24	51	318	163.0	534393.0	14668.0	-5836949.0
16	14	24	51	318	164.0	571472.0	14449.0	-5837738.0
16	14	24	51	318	165.0	590315.0	14524.0	-5838525.0
16	14	24	51	319	166.0	582379.0	14939.0	-5838019.0
16	14	24	51	319	167.0	545579.0	14736.0	-5837362.0
16	14	24	51	319	168.0	485178.0	14133.0	-5837246.0
16	14	24	51	320	169.0	410971.0	13589.0	-5838449.0
16	14	24	51	320	170.0	331479.0	13568.0	-5838372.0
16	14	24	51	320	171.0	259409.0	13856.0	-5837699.0
16	14	24	51	320	172.0	206211.0	13564.0	-5837306.0
16	14	24	51	321	174.0	181863.0	13369.0	-5838709.0
16	14	24	51	321	175.0	206913.0	12556.0	-5838051.0
16	14	24	51	321	176.0	235047.0	12478.0	-5837517.0
16	14	24	51	322	177.0	253294.0	12988.0	-5837366.0
16	14	24	51	365	178.0	257238.0	13777.0	-5838331.0
16	14	24	51	365	179.0	241637.0	15023.0	-5837961.0
16	14	24	51	365	180.0	196958.0	16609.0	-5837386.0
16	14	24	51	366	181.0	124083.0	17644.0	-5837217.0
16	14	24	51	415	182.0	27435.0	20571.0	-5837894.0
16	14	24	51	416	183.0	-84537.0	22864.0	-5837472.0
16	14	24	51	416	184.0	-203047.0	24661.0	-5836886.0
16	14	24	51	416	185.0	-315549.0	27394.0	-5837211.0
16	14	24	51	417	186.0	-416958.0	29795.0	-5837829.0
16	14	24	51	417	187.0	-512485.0	32376.0	-5837324.0
16	14	24	51	417	188.0	-600932.0	35328.0	-5836917.0
16	14	24	51	417	189.0	-664599.0	38228.0	-5838025.0
16	14	24	51	418	190.0	-705004.0	41361.0	-5838031.0
16	14	24	51	418	191.0	-724180.0	44881.0	-5837431.0
16	14	24	51	418	192.0	-725632.0	48724.0	-5836823.0
16	14	24	51	419	193.0	-716069.0	52704.0	-5837342.0
16	14	24	51	419	194.0	-699075.0	56849.0	-5838365.0
16	14	24	51	419	196.0	-645459.0	64881.0	-5837233.0
16	14	24	51	419	197.0	-598184.0	68620.0	-5836827.0
16	14	24	51	420	219.0	170338.0	128033.0	-5836937.0
16	14	24	51	420	220.0	224939.0	126679.0	-5838055.0
16	14	24	51	420	221.0	269219.0	126332.0	-5838352.0
16	14	24	51	421	222.0	313887.0	125478.0	-5837766.0
16	14	24	51	421	223.0	357947.0	125171.0	-5837161.0
16	14	24	51	421	224.0	396592.0	124516.0	-5837809.0
16	14	24	51	464	225.0	425241.0	123732.0	-5838505.0
16	14	24	51	466	226.0	455990.0	123240.0	-5837977.0
16	14	24	51	467	227.0	490639.0	122666.0	-5837281.0
16	14	24	51	468	228.0	534518.0	120954.0	-5837076.0
16	14	24	51	469	229.0	587758.0	118790.0	-5838286.0
16	14	24	51	470	230.0	653268.0	116436.0	-5838356.0
16	14	24	51	472	231.0	732478.0	114453.0	-5837715.0
16	14	24	51	473	232.0	792409.0	112129.0	-5837184.0
16	14	24	51	474	233.0	819901.0	109303.0	-5837535.0
16	14	24	51	476	234.0	821422.0	106318.0	-5838514.0
16	14	24	51	478	235.0	803627.0	103371.0	-5837994.0
16	14	24	51	480	236.0	757780.0	100848.0	-5837418.0
16	14	24	51	482	237.0	680224.0	97626.0	-5837317.0
16	14	24	51	484	238.0	539738.0	94065.0	-5838532.0
16	14	24	51	486	239.0	306301.0	90094.0	-5838187.0
16	14	24	51	488	241.0	-391392.0	81983.0	-5837051.0
16	14	24	51	490	242.0	-496229.0	77329.0	-5838219.0
16	14	24	51	491	243.0	-178642.0	72379.0	-5838544.0
16	14	24	51	493	244.0	423509.0	67996.0	-5838080.0
16	14	24	51	494	245.0	931647.0	63296.0	-5837477.0
16	14	24	51	495	246.0	1234729.0	58913.0	-5837564.0
16	14	24	51	496	247.0	1391272.0	54728.0	-5838656.0
16	14	24	51	497	248.0	1346657.0	50746.0	-5838411.0
16	14	24	51	498	249.0	1093410.0	47586.0	-5837706.0
16	14	24	51	499	250.0	730666.0	43709.0	-5837443.0
16	14	24	51	500	251.0	335426.0	38836.0	-5838442.0
16	14	24	51	501	252.0	-29393.0	34821.0	-5838384.0
16	14	24	51	503	253.0	-352774.0	30764.0	-5837673.0
16	14	24	51	503	254.0	-649105.0	26501.0	-5837304.0
16	14	24	51	504	255.0	-932296.0	21979.0	-5838398.0
16	14	24	51	505	0.0	-1189092.0	16972.0	-5838656.0
16	14	24	51	506	1.0	-1399629.0	12796.0	-5837954.0
16	14	24	51	506	2.0	-1530797.0	8281.0	-5837357.0
16	14	24	51	507	3.0	-1558402.0	3978.0	-5836856.0
16	14	24	51	508	4.0	-1460336.0	-430.0	-5837753.0
16	14	24	51	509	5.0	-1241499.0	-4849.0	-5837738.0
16	14	24	51	509	8.0	-503169.0	-16626.0	-5837715.0
16	14	24	51	510	9.0	-341136.0	-21698.0	-5837482.0
16	14	24	51	511	10.0	-216099.0	-25651.0	-5837057.0
16	14	24	51	512	11.0	-123782.0	-29207.0	-5838071.0
16	14	24	51	513	12.0	-42182.0	-32677.0	-5838567.0
16	14	24	51	514	13.0	28276.0	-35912.0	-5837957.0
16	14	24	51	524	14.0	73119.0	-38824.0	-5837387.0
16	14	24	51	575	15.0	47144.0	-41494.0	-5837295.0
16	14	24	51	575	16.0	-21717.0	-43256.0	-5838232.0
16	14	24	51	575	17.0	-93056.0	-45845.0	-5837901.0
16	14	24	51	576	18.0	-141937.0	-48418.0	-5837293.0
16	14	24	51	576	19.0	-156932.0	-50983.0	-5837057.0
16	14	24	51	576	20.0	-146417.0	-53290.0	-5838437.0
16	14	24	51	577	21.0	-94806.0	-55626.0	-5838359.0
16	14	24	51	577	22.0	-18966.0	-57837.0	-5837804.0
16	14	24	51	577	23.0	77761.0	-59384.0	-5837272.0
16	14	24	51	577	24.0	170502.0	-60981.0	-5838392.0
16	14	24	51	578	25.0	241419.0	-62397.0	-5839048.0
16	14	24	51	578	26.0	300773.0	-63906.0	-5838514.0
16	14	24	51	578	27.0	346942.0	-64815.0	-5837879.0
16	14	24	51	579	28.0	398303.0	-65464.0	-5838163.0
16	14	24	51	579	30.0	422046.0	-67494.0	-5838952.0
16	14	24	51	579	31.0	410334.0	-68959.0	-5838287.0
16	14	24	51	580	32.0	417453.0	-70777.0	-5837967.0
16	14	24	51	580	33.0	432238.0	-71162.0	-5839051.0
16	14	24	51	580	34.0	445935.0	-71684.0	-5839140.0
16	14	24	51	581	35.0	452751.0	-72210.0	-5838444.0
16	14	24	51	581	36.0	436052.0	-72828.0	-5837887.0
16	14	24	51	620	37.0	401583.0	-73192.0	-5837666.0
16	14	24	51	620	38.0	357290.0	-72637.0	-5838710.0
16	14	24	51	621	39.0	300166.0	-72097.0	-5838474.0
16	14	24	51	621	40.0	235466.0	-72006.0	-5837903.0
16	14	24	51	621	41.0	152799.0	-71993.0	-5837725.0
16	14	24	51	622	42.0	48203.0	-71735.0	-5838428.0
16	14	24	51	622	43.0	-32044.0	-72108.0	-5838029.0
16	14	24	51	622	44.0	-64004.0	-72192.0	-5837583.0
16	14	24	51	623	45.0	-87867.0	-71919.0	-5838619.0
16	14	24	51	623	46.0	-134901.0	-71956.0	-5838893.0
16	14	24	51	623	47.0	-183295.0	-71824.0	-5838279.0
16	14	24	51	623	48.0	-242896.0	-71832.0	-5837705.0
16	14	24	51	624	49.0	-302596.0	-71856.0	-5838136.0
16	14	24	51	624	50.0	-352302.0	-71759.0	-5839087.0
16	14	24	51	624	52.0	-435194.0	-72108.0	-5837978.0
16	14	24	51	624	60.0	-135786.0	-67738.0	-5838561.0
16	14	24	51	625	61.0	-835.0	-67071.0	-5837922.0
16	14	24	51	625	62.0	163415.0	-66402.0	-5837864.0
16	14	24	51	625	63.0	346127.0	-65154.0	-5839069.0
16	14	24	51	626	64.0	526536.0	-63797.0	-5838864.0
16	14	24	51	626	65.0	664116.0	-62958.0	-5838229.0
16	14	24	51	626	66.0	751961.0	-61346.0	-5837645.0
16	14	24	51	626	67.0	792083.0	-59222.0	-5837523.0
16	14	24	51	627	68.0	813554.0	-57706.0	-5838374.0
16	14	24	51	627	69.0	822374.0	-56734.0	-5837972.0
16	14	24	51	627	70.0	828099.0	-54539.0	-5837479.0
16	14	24	51	628	71.0	843068.0	-52328.0	-5838257.0
16	14	24	51	628	72.0	836845.0	-50904.0	-5838736.0
16	14	24	51	628	73.0	789078.0	-49524.0	-5838104.0
16	14	24	51	628	74.0	694705.0	-48129.0	-5837526.0
16	14	24	51	629	75.0	552813.0	-46344.0	-5837766.0
16	14	24	51	629	76.0	382914.0	-45831.0	-5838254.0
16	14	24	51	669	77.0	204006.0	-44912.0	-5837745.0
16	14	24	51	669	78.0	34753.0	-43177.0	-5837186.0
16	14	24	51	670	79.0	-114963.0	-40969.0	-5837737.0
16	14	24	51	670	80.0	-244267.0	-38766.0	-5837862.0
16	14	24	51	670	81.0	-343289.0	-37427.0	-5837311.0
16	14	24	51	670	82.0	-419499.0	-36105.0	-5836762.0
16	14	24	51	671	83.0	-474032.0	-35012.0	-5837779.0
16	14	24	51	671	84.0	-507896.0	-34316.0	-5838205.0
16	14	24	51	671	85.0	-517838.0	-32436.0	-5837646.0
16	14	24	51	672	86.0	-492662.0	-29762.0	-5836985.0
16	14	24	51	672	87.0	-414281.0	-27821.0	-5837052.0
16	14	24	51	672	88.0	-309068.0	-26294.0	-5837990.0
16	14	24	51	673	89.0	-214834.0	-25339.0	-5837667.0
16	14	24	51	673	90.0	-143561.0	-23859.0	-5837034.0
16	14	24	51	673	91.0	-74034.0	-23356.0	-5836954.0
16	14	24	51	674	92.0	9973.0	-23001.0	-5838020.0
16	14	24	51	674	93.0	112599.0	-20820.0	-5837842.0
16	14	24	51	674	94.0	213714.0	-18446.0	-5837188.0
16	14	24	51	675	95.0	292696.0	-17194.0	-5836714.0
16	14	24	51	675	96.0	345661.0	-16217.0	-5837606.0
16	14	24	51	675	97.0	371131.0	-15354.0	-5838206.0
16	14	24	51	675	98.0	369270.0	-14824.0	-5837574.0
16	14	24	51	714	99.0	343048.0	-15411.0	-5836919.0
16	14	24	51	715	100.0	292584.0	-14366.0	-5836527.0
16	14	24	51	715	101.0	223821.0	-12836.0	-5837771.0
16	14	24	51	715	102.0	133548.0	-11548.0	-5838039.0
16	14	24	51	716	103.0	32464.0	-10478.0	-5837404.0
16	14	24	51	716	104.0	-75004.0	-9456.0	-5836787.0
16	14	24	51	716	105.0	-175579.0	-8879.0	-5836697.0
16	14	24	51	717	106.0	-259139.0	-9172.0	-5837170.0
16	14	24	51	717	107.0	-331140.0	-8466.0	-5836715.0
16	14	24	51	717	108.0	-393971.0	-7697.0	-5836437.0
16	14	24	51	717	109.0	-440364.0	-6242.0	-5837781.0
16	14	24	51	718	110.0	-469954.0	-5292.0	-5837804.0
16	14	24	51	718	111.0	-484719.0	-4806.0	-5837207.0
16	14	24	51	718	112.0	-472362.0	-4469.0	-5836628.0
16	14	24	51	718	113.0	-420696.0	-4378.0	-5837042.0
16	14	24	51	719	114.0	-333095.0	-4565.0	-5838014.0
16	14	24	51	719	115.0	-246716.0	-3304.0	-5837505.0
16	14	24	51	719	116.0	-171656.0	-1983.0	-5836909.0
16	14	24	51	720	117.0	-100964.0	-1246.0	-5836507.0
16	14	24	51	720	118.0	-27096.0	-664.0	-5837637.0
16	14	24	51	720	119.0	47385.0	-189.0	-5837818.0
16	14	24	51	721	120.0	121448.0	-629.0	-5837236.0
16	14	24	51	721	121.0	194964.0	-1002.0	-5836631.0
16	14	24	51	760	122.0	268570.0	-953.0	-5837396.0
16	14	24	51	761	123.0	339759.0	-937.0	-5838178.0
16	14	24	51	761	124.0	386689.0	57.0	-5837652.0
16	14	24	51	762	125.0	408771.0	646.0	-5837023.0
16	14	24	51	762	126.0	402990.0	1140.0	-5837392.0
16	14	24	51	762	127.0	383456.0	1973.0	-5838450.0
16	14	24	51	763	128.0	348736.0	1896.0	-5838022.0
16	14	24	51	763	129.0	314336.0	983.0	-5837364.0
16	14	24	51	763	130.0	274326.0	1844.0	-5836951.0
16	14	24	51	764	131.0	222599.0	3644.0	-5838092.0
16	14	24	51	764	132.0	159563.0	4277.0	-5838736.0
16	14	24	51	764	133.0	92568.0	3939.0	-5838085.0
16	14	24	51	764	134.0	24723.0	3668.0	-5837523.0
16	14	24	51	765	135.0	-39019.0	3330.0	-5837291.0
16	14	24	51	765	136.0	-87737.0	2024.0	-5838369.0
16	14	24	51	765	137.0	-111847.0	754.0	-5838133.0
16	14	24	51	765	138.0	-111322.0	454.0	-5837579.0
16	14	24	51	766	139.0	-95556.0	119.0	-5837940.0
16	14	24	51	766	140.0	-64091.0	-1073.0	-5838807.0
16	14	24	51	808	141.0	-16191.0	-2317.0	-5838279.0
16	14	24	51	808	142.0	24933.0	-2841.0	-5837688.0
16	14	24	51	809	143.0	42250.0	-5512.0	-5837346.0
16	14	24	51	809	144.0	33364.0	-7826.0	-5838581.0
16	14	24	51	809	145.0	18288.0	-8226.0	-5838652.0
16	14	24	51	810	146.0	19949.0	-8317.0	-5838062.0
16	14	24	51	810	147.0	44198.0	-9307.0	-5837371.0
16	14	24	51	810	148.0	89365.0	-9827.0	-5837673.0
16	14	24	51	811	149.0	159878.0	-10918.0	-5838783.0
16	14	24	51	811	150.0	239114.0	-12405.0	-5838447.0
16	14	24	51	811	151.0	291764.0	-14936.0	-5837775.0
16	14	24	51	812	152.0	307968.0	-16576.0	-5837439.0
16	14	24	51	812	153.0	296488.0	-17652.0	-5838459.0
16	14	24	51	812	154.0	263199.0	-17757.0	-5838707.0
16	14	24	51	812	155.0	222661.0	-18553.0	-5838052.0
16	14	24	51	813	156.0	186037.0	-19421.0	-5837577.0
16	14	24	51	813	157.0	154046.0	-20924.0	-5838305.0
16	14	24	51	813	158.0	118920.0	-23082.0	-5838825.0
16	14	24	51	813	159.0	80177.0	-25390.0	-5838210.0
16	14	24	51	814	160.0	38363.0	-26653.0	-5837662.0
16	14	24	51	814	161.0	-7114.0	-26786.0	-5837372.0
16	14	24	51	814	162.0	-55910.0	-28406.0	-5838561.0
16	14	24	51	815	163.0	-114887.0	-29969.0	-5838336.0
16	14	24	51	815	164.0	-166755.0	-30854.0	-5837752.0
16	14	24	51	815	165.0	-207290.0	-31964.0	-5837116.0
16	14	24	51	815	166.0	-231395.0	-33661.0	-5837698.0
16	14	24	51	856	167.0	-236073.0	-34792.0	-5838451.0
16	14	24	51	857	168.0	-250702.0	-35559.0	-5837978.0
16	14	24	51	857	169.0	-298015.0	-35708.0	-5837300.0
16	14	24	51	857	170.0	-341474.0	-36347.0	-5837102.0
16	14	24	51	858	171.0	-384293.0	-37126.0	-5838301.0
16	14	24	51	858	172.0	-403513.0	-38166.0	-5838342.0
16	14	24	51	858	173.0	-411827.0	-39176.0	-5837637.0
16	14	24	51	859	174.0	-395441.0	-40686.0	-5837400.0
16	14	24	51	859	175.0	-372151.0	-41082.0	-5838466.0
16	14	24	51	859	176.0	-344657.0	-40296.0	-5838454.0
16	14	24	51	859	177.0	-310752.0	-40352.0	-5837766.0
16	14	24	51	860	178.0	-280652.0	-40507.0	-5837222.0
16	14	24	51	860	179.0	-263507.0	-40634.0	-5837353.0
16	14	24	51	860	180.0	-268851.0	-40959.0	-5838525.0
16	14	24	51	861	181.0	-258017.0	-41734.0	-5838074.0
16	14	24	51	861	182.0	-196873.0	-42154.0	-5837529.0
16	14	24	51	861	183.0	-86186.0	-41442.0	-5837021.0
16	14	24	51	862	184.0	69027.0	-40452.0	-5837792.0
16	14	24	51	862	185.0	200546.0	-39875.0	-5837956.0
16	14	24	51	862	186.0	289165.0	-39525.0	-5837427.0
16	14	24	51	862	187.0	331780.0	-39453.0	-5837222.0
16	14	24	51	863	188.0	344387.0	-39662.0	-5838003.0
16	14	24	51	863	189.0	339182.0	-40344.0	-5837665.0
16	14	24	51	863	190.0	319808.0	-39820.0	-5837086.0
16	14	24	51	864	191.0	297590.0	-38289.0	-5837206.0
16	14	24	51	864	192.0	278094.0	-37647.0	-5837988.0
16	14	24	51	864	193.0	267430.0	-36754.0	-5837518.0
16	14	24	51	910	194.0	253511.0	-35844.0	-5836879.0
16	14	24	51	910	195.0	232702.0	-35462.0	-5837004.0
16	14	24	51	910	196.0	203595.0	-35557.0	-5838332.0
16	14	24	51	911	197.0	147609.0	-34527.0	-5837985.0
16	14	24	51	911	198.0	73859.0	-33297.0	-5837404.0
16	14	24	51	911	199.0	-1787.0	-32532.0	-5836873.0
16	14	24	51	912	200.0	-49526.0	-31626.0	-5837761.0
16	14	24	51	912	201.0	-90402.0	-30737.0	-5838268.0
16	14	24	51	912	202.0	-117604.0	-29939.0	-5837704.0
16	14	24	51	913	203.0	-140172.0	-29628.0	-5837129.0
16	14	24	51	913	204.0	-147959.0	-29539.0	-5837986.0
16	14	24	51	913	205.0	-138046.0	-29321.0	-5838709.0
16	14	24	51	913	206.0	-130345.0	-28849.0	-5838151.0
16	14	24	51	914	207.0	-119406.0	-27701.0	-5837516.0
16	14	24	51	914	208.0	-94206.0	-26485.0	-5837398.0
16	14	24	51	914	209.0	-50131.0	-25632.0	-5838524.0
16	14	24	51	915	210.0	8757.0	-25532.0	-5838326.0
16	14	24	51	915	211.0	70578.0	-25410.0	-5837647.0
16	14	24	51	915	212.0	128404.0	-24276.0	-5837220.0
16	14	24	51	916	213.0	192021.0	-23459.0	-5838261.0
16	14	24	51	916	214.0	267779.0	-22863.0	-5838799.0
16	14	24	51	916	215.0	341090.0	-21090.0	-5838138.0
16	14	24	51	917	216.0	376928.0	-19822.0	-5837587.0
16	14	24	51	917	217.0	395146.0	-18587.0	-5837342.0
16	14	24	51	917	218.0	340829.0	-17957.0	-5838043.0
16	14	24	51	977	219.0	128969.0	-17653.0	-5837656.0
16	14	24	51	978	220.0	-208657.0	-16684.0	-5837131.0
16	14	24	51	978	221.0	-623785.0	-15446.0	-5837976.0
16	14	24	51	978	222.0	-1022349.0	-14567.0	-5838511.0
16	14	24	51	979	223.0	-1265308.0	-13792.0	-5837870.0
16	14	24	51	979	224.0	-1326887.0	-12954.0	-5837260.0
16	14	24	51	979	225.0	-1261154.0	-12159.0	-5837177.0
16	14	24	51	980	226.0	-1109104.0	-11966.0	-5837836.0
16	14	24	51	980	227.0	-857073.0	-11348.0	-5837351.0
16	14	24	51	980	228.0	-496066.0	-9886.0	-5836768.0
16	14	24	51	980	229.0	-36351.0	-8479.0	-5836687.0
16	14	24	51	981	230.0	481674.0	-7288.0	-5837945.0
16	14	24	51	981	231.0	971884.0	-6329.0	-5837762.0
16	14	24	51	981	232.0	1321956.0	-5387.0	-5837218.0
16	14	24	51	982	233.0	1450470.0	-5312.0	-5836744.0
16	14	24	51	982	234.0	1326281.0	-5227.0	-5837826.0
16	14	24	51	982	235.0	984087.0	-4336.0	-5838137.0
16	14	24	51	983	236.0	513725.0	-2287.0	-5837487.0
16	14	24	51	983	237.0	45449.0	-424.0	-5836867.0
16	14	24	51	983	238.0	-322709.0	378.0	-5837634.0
16	14	24	51	984	239.0	-614229.0	901.0	-5838254.0
16	14	24	51	984	240.0	-836446.0	1384.0	-5837692.0
16	14	24	51	984	241.0	-973446.0	1372.0	-5837044.0
16	14	24	51	984	242.0	-999421.0	1964.0	-5837409.0
16	14	24	51	985	243.0	-907878.0	3254.0	-5838424.0
16	14	24	51	985	244.0	-729566.0	4429.0	-5838051.0
16	14	24	51	985	245.0	-496989.0	5216.0	-5837425.0
16	14	24	51	986	246.0	-223052.0	6988.0	-5836929.0
16	14	24	52	49	247.0	80511.0	7351.0	-5837528.0
16	14	24	52	50	248.0	394384.0	7362.0	-5838557.0
16	14	24	52	50	249.0	668049.0	8319.0	-5838002.0
16	14	24	52	50	250.0	868455.0	9077.0	-5837487.0
16	14	24	52	51	251.0	989586.0	10007.0	-5837281.0
16	14	24	52	51	252.0	1019359.0	10929.0	-5838014.0
16	14	24	52	51	253.0	938512.0	11771.0	-5837598.0
16	14	24	52	52	254.0	767600.0	12595.0	-5837124.0
16	14	24	52	52	255.0	553749.0	13176.0	-5838159.0
16	14	24	52	52	0.0	340111.0	12662.0	-5838682.0
16	14	24	52	53	1.0	153556.0	12629.0	-5838037.0
16	14	24	52	53	2.0	-2988.0	13208.0	-5837446.0
16	14	24	52	53	3.0	-146101.0	13622.0	-5837062.0
16	14	24	52	54	4.0	-286779.0	14641.0	-5838506.0
16	14	24	52	54	5.0	-410170.0	16516.0	-5838629.0
16	14	24	52	54	6.0	-504779.0	17671.0	-5838058.0
16	14	24	52	54	7.0	-551449.0	17569.0	-5837397.0
16	14	24	52	55	8.0	-542214.0	17988.0	-5837810.0
16	14	24	52	55	9.0	-490902.0	19541.0	-5838866.0
16	14	24	52	55	10.0	-425479.0	20541.0	-5838512.0
16	14	24	52	55	11.0	-353764.0	21205.0	-5837866.0
16	14	24	52	56	12.0	-267938.0	21853.0	-5837709.0
16	14	24	52	56	13.0	-165491.0	21901.0	-5839091.0
16	14	24	52	56	14.0	-59840.0	22174.0	-5839211.0
16	14	24	52	57	15.0	31134.0	22009.0	-5838546.0
16	14	24	52	57	16.0	106601.0	22203.0	-5838049.0
16	14	24	52	57	17.0	154135.0	22099.0	-5838626.0
16	14	24	52	57	18.0	180392.0	23618.0	-5839613.0
16	14	24	52	58	19.0	183699.0	24394.0	-5838955.0
16	14	24	52	58	20.0	172124.0	24774.0	-5838371.0
16	14	24	52	58	21.0	155249.0	24953.0	-5837750.0
16	14	24	52	59	22.0	144351.0	24476.0	-5838537.0
16	14	24	52	59	23.0	147742.0	24179.0	-5839112.0
16	14	24	52	59	24.0	171211.0	24954.0	-5838587.0
16	14	24	52	59	25.0	212025.0	25700.0	-5837926.0
16	14	24	52	60	26.0	264333.0	25469.0	-5838297.0
16	14	24	52	60	27.0	321244.0	25273.0	-5839043.0
16	14	24	52	60	28.0	372338.0	25644.0	-5838586.0
16	14	24	52	61	29.0	415735.0	25559.0	-5837929.0
16	14	24	52	61	30.0	446372.0	24785.0	-5838174.0
16	14	24	52	61	31.0	455924.0	24339.0	-5839194.0
16	14	24	52	62	32.0	451299.0	25109.0	-5838813.0
16	14	24	52	62	33.0	434820.0	26181.0	-5838139.0
16	14	24	52	62	34.0	414042.0	26141.0	-5837641.0
16	14	24	52	114	35.0	381024.0	26001.0	-5838513.0
16	14	24	52	114	36.0	337499.0	25786.0	-5839344.0
16	14	24	52	115	37.0	291283.0	24738.0	-5838719.0
16	14	24	52	115	38.0	246929.0	23661.0	-5838113.0
16	14	24	52	115	39.0	200741.0	24011.0	-5838242.0
16	14	24	52	116	40.0	148033.0	24656.0	-5839516.0
16	14	24	52	116	41.0	88947.0	25048.0	-5839151.0
16	14	24	52	116	42.0	34516.0	25041.0	-5838515.0
16	14	24	52	117	43.0	-16934.0	25510.0	-5837936.0
16	14	24	52	117	44.0	-61386.0	25516.0	-5838378.0
16	14	24	52	117	45.0	-99746.0	24733.0	-5838731.0
16	14	24	52	118	46.0	-126775.0	25034.0	-5838217.0
16	14	24	52	118	47.0	-142931.0	24892.0	-5837724.0
16	14	24	52	118	48.0	-157432.0	24209.0	-5838528.0
16	14	24	52	119	49.0	-172556.0	24957.0	-5838659.0
16	14	24	52	119	50.0	-186262.0	26010.0	-5838127.0
16	14	24	52	119	51.0	-179820.0	25785.0	-5837599.0
16	14	24	52	119	52.0	-155021.0	25403.0	-5838412.0
16	14	24	52	120	53.0	-130159.0	25008.0	-5838462.0
16	14	24	52	120	54.0	-101895.0	25694.0	-5837915.0
16	14	24	52	120	55.0	-71622.0	27024.0	-5837544.0
16	14	24	52	121	56.0	-36406.0	28417.0	-5838356.0
16	14	24	52	121	57.0	2503.0	29828.0	-5838109.0
16	14	24	52	122	58.0	35054.0	32650.0	-5837538.0
16	14	24	52	122	59.0	58277.0	34846.0	-5837689.0
16	14	24	52	122	60.0	73951.0	36305.0	-5838536.0
16	14	24	52	122	61.0	83241.0	39767.0	-5838101.0
16	14	24	52	123	62.0	80609.0	42992.0	-5837518.0
16	14	24	52	123	63.0	77091.0	45813.0	-5838136.0
16	14	24	52	123	64.0	84649.0	48554.0	-5838822.0
16	14	24	52	124	65.0	111906.0	51949.0	-5838291.0
16	14	24	52	124	66.0	147588.0	55838.0	-5837687.0
16	14	24	52	124	67.0	172581.0	59211.0	-5837418.0
16	14	24	52	124	68.0	180219.0	62523.0	-5838416.0
16	14	24	52	181	69.0	177783.0	66261.0	-5838228.0
16	14	24	52	181	70.0	162417.0	71063.0	-5837631.0
16	14	24	52	182	71.0	152773.0	76258.0	-5837132.0
16	14	24	52	182	72.0	152951.0	80803.0	-5838312.0
16	14	24	52	182	73.0	157339.0	85198.0	-5838837.0
16	14	24	52	183	74.0	152818.0	89266.0	-5838217.0
16	14	24	52	183	75.0	139493.0	92549.0	-5837639.0
16	14	24	52	183	76.0	113568.0	96941.0	-5838246.0
16	14	24	52	183	77.0	82676.0	101733.0	-5838919.0
16	14	24	52	184	78.0	57171.0	106533.0	-5838367.0
16	14	24	52	184	79.0	37600.0	110954.0	-5837711.0
16	14	24	52	184	80.0	20160.0	115195.0	-5837604.0
16	14	24	52	184	81.0	-9521.0	119549.0	-5838721.0
16	14	24	52	185	82.0	-46111.0	122332.0	-5838499.0
16	14	24	52	185	83.0	-72456.0	124906.0	-5837822.0
16	14	24	52	185	84.0	-86749.0	127979.0	-5837229.0
16	14	24	52	185	85.0	-91642.0	132081.0	-5837130.0
16	14	24	52	186	86.0	-101868.0	134929.0	-5837749.0
16	14	24	52	186	87.0	-107460.0	137930.0	-5837294.0
16	14	24	52	186	88.0	-123582.0	140249.0	-5836766.0
16	14	24	52	186	89.0	-147694.0	142308.0	-5837496.0
16	14	24	52	246	90.0	-175196.0	142479.0	-5837954.0
16	14	24	52	246	91.0	-204150.0	143309.0	-5837374.0
16	14	24	52	246	92.0	-209601.0	144714.0	-5836810.0
16	14	24	52	247	93.0	-177889.0	144926.0	-5837161.0
16	14	24	52	247	94.0	-122106.0	143869.0	-5837803.0
16	14	24	52	247	95.0	-70956.0	142751.0	-5837309.0
16	14	24	52	247	96.0	-29019.0	141286.0	-5836725.0
16	14	24	52	248	97.0	8415.0	139546.0	-5837229.0
16	14	24	52	248	98.0	43485.0	137619.0	-5837599.0
16	14	24	52	248	99.0	83237.0	135324.0	-5837058.0
16	14	24	52	249	100.0	122778.0	132276.0	-5836512.0
16	14	24	52	249	101.0	149595.0	129793.0	-5837303.0
16	14	24	52	249	102.0	172281.0	127299.0	-5837885.0
16	14	24	52	249	103.0	198538.0	124134.0	-5837356.0
16	14	24	52	250	104.0	230628.0	120736.0	-5836716.0
16	14	24	52	250	105.0	262627.0	117105.0	-5836809.0
16	14	24	52	250	106.0	271789.0	114149.0	-5838186.0
16	14	24	52	251	107.0	251749.0	111214.0	-5837985.0
16	14	24	52	251	108.0	203829.0	107480.0	-5837331.0
16	14	24	52	251	109.0	132603.0	104207.0	-5837049.0
16	14	24	52	252	110.0	33736.0	101289.0	-5838090.0
16	14	24	52	252	111.0	-93536.0	98348.0	-5838185.0
16	14	24	52	252	112.0	-257507.0	95040.0	-5837505.0
16	14	24	52	252	113.0	-493636.0	92251.0	-5836934.0
16	14	24	52	252	114.0	-798236.0	88966.0	-5837280.0
16	14	24	52	253	115.0	-1171275.0	85146.0	-5838191.0
16	14	24	52	253	116.0	-1317274.0	81186.0	-5837666.0
16	14	24	52	253	117.0	-1024435.0	77397.0	-5837084.0
16	14	24	52	254	118.0	-387230.0	73269.0	-5836576.0
16	14	24	52	254	119.0	229511.0	69480.0	-5837192.0
16	14	24	52	254	120.0	675359.0	64947.0	-5837502.0
16	14	24	52	254	121.0	989969.0	60337.0	-5836999.0
16	14	24	52	255	122.0	1094611.0	56128.0	-5836684.0
16	14	24	52	255	123.0	950228.0	53375.0	-5837682.0
16	14	24	52	255	124.0	655302.0	49569.0	-5837552.0
16	14	24	52	256	125.0	312473.0	45194.0	-5836973.0
16	14	24	52	256	126.0	-11972.0	40654.0	-5836700.0
16	14	24	52	256	127.0	-272959.0	36059.0	-5837449.0
16	14	24	52	257	128.0	-486573.0	31639.0	-5837064.0
16	14	24	52	257	129.0	-674425.0	28256.0	-5836619.0
16	14	24	52	310	130.0	-836707.0	24518.0	-5837543.0
16	14	24	52	311	131.0	-948234.0	20236.0	-5837981.0
16	14	24	52	311	132.0	-994427.0	16433.0	-5837312.0
16	14	24	52	311	133.0	-954459.0	12233.0	-5836756.0
16	14	24	52	312	134.0	-807207.0	8588.0	-5836327.0
16	14	24	52	312	135.0	-578569.0	4281.0	-5837562.0
16	14	24	52	312	136.0	-320376.0	214.0	-5837762.0
16	14	24	52	313	137.0	-111240.0	-2902.0	-5837226.0
16	14	24	52	313	138.0	27109.0	-5319.0	-5836679.0
16	14	24	52	313	139.0	118964.0	-8298.0	-5837706.0
16	14	24	52	313	140.0	170834.0	-11499.0	-5838258.0
16	14	24	52	314	141.0	182744.0	-14790.0	-5837747.0
16	14	24	52	314	142.0	151190.0	-18589.0	-5837117.0
16	14	24	52	314	143.0	85556.0	-21871.0	-5837199.0
16	14	24	52	315	144.0	1251.0	-23245.0	-5838413.0
16	14	24	52	315	145.0	-80008.0	-25801.0	-5838210.0
16	14	24	52	315	146.0	-142658.0	-28559.0	-5837484.0
16	14	24	52	315	147.0	-188091.0	-30967.0	-5836955.0
16	14	24	52	316	148.0	-209226.0	-33799.0	-5837581.0
16	14	24	52	316	149.0	-192287.0	-37019.0	-5838228.0
16	14	24	52	316	150.0	-143265.0	-39868.0	-5837604.0
16	14	24	52	316	151.0	-67321.0	-42036.0	-5837067.0
16	14	24	52	317	152.0	-16081.0	-43806.0	-5837102.0
16	14	24	52	317	153.0	3938.0	-45054.0	-5838559.0
16	14	24	52	317	154.0	53029.0	-46563.0	-5838314.0
16	14	24	52	318	155.0	127101.0	-48005.0	-5837787.0
16	14	24	52	318	156.0	210227.0	-49683.0	-5837266.0
16	14	24	52	318	157.0	281242.0	-52022.0	-5837889.0
16	14	24	52	318	158.0	334344.0	-54019.0	-5837824.0
16	14	24	52	319	159.0	364147.0	-53818.0	-5837277.0
16	14	24	52	319	160.0	374888.0	-54242.0	-5836889.0
16	14	24	52	319	161.0	375659.0	-54998.0	-5837607.0
16	14	24	52	320	162.0	360061.0	-56206.0	-5837328.0
16	14	24	52	320	163.0	330861.0	-57576.0	-5836743.0
16	14	24	52	320	164.0	297911.0	-59236.0	-5836429.0
16	14	24	52	321	165.0	268008.0	-61121.0	-5837192.0
16	14	24	52	322	166.0	254930.0	-62086.0	-5836855.0
16	14	24	52	322	167.0	241993.0	-61892.0	-5836271.0
16	14	24	52	322	168.0	226522.0	-61121.0	-5836222.0
16	14	24	52	323	169.0	212478.0	-61061.0	-5836958.0
16	14	24	52	323	170.0	200332.0	-60963.0	-5836524.0
16	14	24	52	399	171.0	192951.0	-61638.0	-5836097.0
16	14	24	52	400	172.0	198189.0	-63124.0	-5837139.0
16	14	24	52	400	173.0	202370.0	-64321.0	-5837445.0
16	14	24	52	400	174.0	200646.0	-64024.0	-5836835.0
16	14	24	52	401	175.0	199209.0	-64063.0	-5836250.0
16	14	24	52	401	176.0	200071.0	-63976.0	-5836581.0
16	14	24	52	401	177.0	198088.0	-64609.0	-5837214.0
16	14	24	52	402	178.0	191514.0	-64927.0	-5836701.0
16	14	24	52	402	179.0	174632.0	-65422.0	-5836032.0
16	14	24	52	402	180.0	154444.0	-66239.0	-5836322.0
16	14	24	52	402	181.0	125586.0	-66458.0	-5837647.0
16	14	24	52	403	182.0	88127.0	-66249.0	-5837276.0
16	14	24	52	403	183.0	39730.0	-65836.0	-5836626.0
16	14	24	52	403	184.0	-11517.0	-65657.0	-5836097.0
16	14	24	52	404	185.0	-58180.0	-66144.0	-5836996.0
16	14	24	52	404	186.0	-87829.0	-66234.0	-5837394.0
16	14	24	52	404	187.0	-95073.0	-67399.0	-5836827.0
16	14	24	52	404	188.0	-69709.0	-67719.0	-5836374.0
16	14	24	52	405	189.0	-22113.0	-66707.0	-5837437.0
16	14	24	52	405	190.0	27883.0	-66192.0	-5837971.0
16	14	24	52	405	191.0	68445.0	-66032.0	-5837388.0
16	14	24	52	405	192.0	99768.0	-65347.0	-5836774.0
16	14	24	52	406	193.0	133921.0	-64699.0	-5836821.0
16	14	24	52	406	194.0	163970.0	-64669.0	-5837906.0
16	14	24	52	406	195.0	190252.0	-65935.0	-5837506.0
16	14	24	52	407	196.0	211989.0	-66319.0	-5836861.0
16	14	24	52	407	197.0	213833.0	-64862.0	-5836427.0
16	14	24	52	407	198.0	191859.0	-64003.0	-5837432.0
16	14	24	52	407	199.0	150763.0	-63352.0	-5837930.0
16	14	24	52	408	200.0	97632.0	-62658.0	-5837305.0
16	14	24	52	408	201.0	33711.0	-62459.0	-5836716.0
16	14	24	52	408	202.0	-37303.0	-62795.0	-5836504.0
16	14	24	52	409	203.0	-116115.0	-62852.0	-5837964.0
16	14	24	52	409	204.0	-195070.0	-62028.0	-5837872.0
16	14	24	52	409	205.0	-275893.0	-60681.0	-5837284.0
16	14	24	52	410	206.0	-353529.0	-60379.0	-5836785.0
16	14	24	52	412	207.0	-403253.0	-59262.0	-5837633.0
16	14	24	52	413	208.0	-424153.0	-58513.0	-5837747.0
16	14	24	52	414	209.0	-420004.0	-58556.0	-5837165.0
16	14	24	52	415	210.0	-410366.0	-58746.0	-5836513.0
16	14	24	52	416	211.0	-399127.0	-57634.0	-5836749.0
16	14	24	52	416	212.0	-376691.0	-55522.0	-5837771.0
16	14	24	52	417	213.0	-337057.0	-54192.0	-5837417.0
16	14	24	52	418	214.0	-269326.0	-52014.0	-5836761.0
16	14	24	52	419	215.0	-189782.0	-50513.0	-5836392.0
16	14	24	52	420	216.0	-99847.0	-49204.0	-5837336.0
16	14	24	52	421	217.0	611.0	-49147.0	-5837687.0
16	14	24	52	505	218.0	95803.0	-48649.0	-5837017.0
16	14	24	52	505	219.0	184203.0	-47299.0	-5836548.0
16	14	24	52	506	220.0	253314.0	-44659.0	-5837119.0
16	14	24	52	506	221.0	309126.0	-43100.0	-5837866.0
16	14	24	52	506	222.0	344955.0	-42160.0	-5837246.0
16	14	24	52	507	223.0	364939.0	-41448.0	-5836683.0
16	14	24	52	507	224.0	383875.0	-41470.0	-5836329.0
16	14	24	52	507	225.0	406377.0	-41188.0	-5837106.0
16	14	24	52	507	226.0	423327.0	-39854.0	-5836851.0
16	14	24	52	508	227.0	431517.0	-38054.0	-5836297.0
16	14	24	52	508	228.0	420915.0	-37257.0	-5836030.0
16	14	24	52	508	229.0	395971.0	-36824.0	-5836995.0
16	14	24	52	508	230.0	358384.0	-35880.0	-5836732.0
16	14	24	52	509	231.0	327778.0	-35487.0	-5836151.0
16	14	24	52	509	232.0	296166.0	-35807.0	-5836007.0
16	14	24	52	509	233.0	249025.0	-35540.0	-5837324.0
16	14	24	52	510	234.0	189952.0	-34483.0	-5837106.0
16	14	24	52	510	235.0	126848.0	-33223.0	-5836556.0
16	14	24	52	510	236.0	77944.0	-32546.0	-5836206.0
16	14	24	52	510	237.0	45907.0	-32297.0	-5837327.0
16	14	24	52	511	238.0	28797.0	-32019.0	-5837379.0
16	14	24	52	511	239.0	2767.0	-32444.0	-5836816.0
16	14	24	52	511	240.0	-31357.0	-33066.0	-5836219.0
16	14	24	52	512	241.0	-69472.0	-32457.0	-5836738.0
16	14	24	52	512	242.0	-110502.0	-31021.0	-5837499.0
16	14	24	52	512	243.0	-141888.0	-30837.0	-5836977.0
16	14	24	52	513	244.0	-166206.0	-30500.0	-5836311.0
16	14	24	52	513	245.0	-176177.0	-30327.0	-5836013.0
16	14	24	52	513	246.0	-173446.0	-29836.0	-5837169.0
16	14	24	52	513	247.0	-166937.0	-30129.0	-5837299.0
16	14	24	52	514	248.0	-173967.0	-29395.0	-5836662.0
16	14	24	52	514	249.0	-195684.0	-28306.0	-5836125.0
16	14	24	52	514	250.0	-224119.0	-27707.0	-5836366.0
16	14	24	52	515	251.0	-234022.0	-27486.0	-5837387.0
16	14	24	52	515	252.0	-237130.0	-27729.0	-5836912.0
16	14	24	52	515	253.0	-215654.0	-28001.0	-5836329.0
16	14	24	52	516	254.0	-175461.0	-28358.0	-5836047.0
16	14	24	52	516	255.0	-144807.0	-28479.0	-5837169.0
16	14	24	52	516	0.0	-132529.0	-28281.0	-5836989.0
16	14	24	52	517	1.0	-129592.0	-27689.0	-5836418.0
16	14	24	52	517	2.0	-127548.0	-26784.0	-5835779.0
16	14	24	52	517	3.0	-110794.0	-25626.0	-5836512.0
16	14	24	52	518	4.0	-80886.0	-25039.0	-5837247.0
16	14	24	52	518	5.0	-52591.0	-25017.0	-5836779.0
16	14	24	52	593	6.0	-19218.0	-26284.0	-5836122.0
16	14	24	52	593	7.0	13216.0	-26417.0	-5836053.0
16	14	24	52	594	8.0	31154.0	-25524.0	-5837185.0
16	14	24	52	594	9.0	25544.0	-25142.0	-5837019.0
16	14	24	52	594	10.0	6467.0	-25733.0	-5836325.0
16	14	24	52	595	11.0	-31789.0	-26177.0	-5836008.0
16	14	24	52	595	12.0	-68564.0	-26098.0	-5837070.0
16	14	24	52	595	13.0	-104259.0	-26915.0	-5837320.0
16	14	24	52	595	14.0	-122190.0	-27556.0	-5836652.0
16	14	24	52	596	15.0	-132723.0	-27674.0	-5836154.0
16	14	24	52	597	16.0	-134656.0	-26894.0	-5836746.0
16	14	24	52	597	17.0	-121570.0	-26512.0	-5837790.0
16	14	24	52	597	18.0	-101434.0	-26403.0	-5837207.0
16	14	24	52	598	19.0	-85878.0	-26146.0	-5836630.0
16	14	24	52	598	20.0	-67107.0	-26402.0	-5836162.0
16	14	24	52	598	21.0	-46703.0	-27233.0	-5836864.0
16	14	24	52	599	22.0	-19202.0	-27343.0	-5836752.0
16	14	24	52	599	23.0	15582.0	-26687.0	-5836224.0
16	14	24	52	599	24.0	54378.0	-26032.0	-5836055.0
16	14	24	52	600	25.0	99748.0	-25284.0	-5837245.0
16	14	24	52	600	26.0	146287.0	-25909.0	-5836987.0
16	14	24	52	600	27.0	185555.0	-25755.0	-5836459.0
16	14	24	52	601	28.0	222338.0	-26102.0	-5836091.0
16	14	24	52	601	29.0	245824.0	-26876.0	-5837379.0
16	14	24	52	601	30.0	259121.0	-26349.0	-5837457.0
16	14	24	52	602	31.0	252154.0	-25226.0	-5836906.0
16	14	24	52	602	32.0	238298.0	-24917.0	-5836229.0
16	14	24	52	602	33.0	211704.0	-24743.0	-5836624.0
16	14	24	52	602	34.0	182372.0	-24730.0	-5837675.0
16	14	24	52	603	35.0	155488.0	-24949.0	-5837262.0
16	14	24	52	604	36.0	135491.0	-25539.0	-5836543.0
16	14	24	52	604	37.0	120547.0	-25320.0	-5836129.0
16	14	24	52	605	38.0	111061.0	-24354.0	-5837119.0
16	14	24	52	605	39.0	102372.0	-23739.0	-5837650.0
16	14	24	52	605	40.0	91211.0	-23487.0	-5837016.0
16	14	24	52	606	41.0	75447.0	-23088.0	-5836476.0
16	14	24	52	606	42.0	60970.0	-22742.0	-5836607.0
16	14	24	52	606	43.0	37948.0	-22428.0	-5838017.0
16	14	24	52	606	44.0	9158.0	-22507.0	-5837650.0
16	14	24	52	607	45.0	-26275.0	-22227.0	-5837086.0
16	14	24	52	607	46.0	-62993.0	-21977.0	-5836633.0
16	14	24	52	607	47.0	-96693.0	-21644.0	-5837521.0
16	14	24	52	608	48.0	-129041.0	-20891.0	-5837480.0
16	14	24	52	608	49.0	-158316.0	-20421.0	-5836935.0
16	14	24	52	608	50.0	-174152.0	-20750.0	-5836601.0
16	14	24	52	608	51.0	-184241.0	-21166.0	-5837226.0
16	14	24	52	609	52.0	-194089.0	-20871.0	-5836837.0
16	14	24	52	609	53.0	-194539.0	-20365.0	-5836282.0
16	14	24	52	609	54.0	-182092.0	-19783.0	-5836200.0
16	14	24	52	610	55.0	-153262.0	-19394.0	-5837059.0
16	14	24	52	610	56.0	-125667.0	-18868.0	-5836651.0
16	14	24	52	693	57.0	-115674.0	-17228.0	-5836155.0
16	14	24	52	694	58.0	-128883.0	-16909.0	-5837092.0
16	14	24	52	694	59.0	-154169.0	-16181.0	-5837691.0
16	14	24	52	695	60.0	-184692.0	-15345.0	-5837097.0
16	14	24	52	695	61.0	-199801.0	-14699.0	-5836500.0
16	14	24	52	695	62.0	-182749.0	-13681.0	-5836759.0
16	14	24	52	696	63.0	-138460.0	-13492.0	-5837284.0
16	14	24	52	696	64.0	-85506.0	-13679.0	-5836785.0
16	14	24	52	696	65.0	-24351.0	-13296.0	-5836223.0
16	14	24	52	697	66.0	45419.0	-13346.0	-5836982.0
16	14	24	52	697	67.0	114183.0	-12935.0	-5837586.0
16	14	24	52	697	68.0	186337.0	-12124.0	-5837027.0
16	14	24	52	698	69.0	266763.0	-10306.0	-5836419.0
16	14	24	52	698	70.0	358796.0	-9563.0	-5836043.0
16	14	24	52	698	71.0	444614.0	-8581.0	-5837265.0
16	14	24	52	699	72.0	498168.0	-7244.0	-5837507.0
16	14	24	52	699	73.0	480829.0	-7057.0	-5836868.0
16	14	24	52	699	74.0	336530.0	-7209.0	-5836332.0
16	14	24	52	700	75.0	34216.0	-6523.0	-5837227.0
16	14	24	52	700	76.0	-352149.0	-4680.0	-5837764.0
16	14	24	52	700	77.0	-754905.0	-3827.0	-5837111.0
16	14	24	52	701	78.0	-1032779.0	-3059.0	-5836466.0
16	14	24	52	701	79.0	-1149490.0	-2090.0	-5836631.0
16	14	24	52	701	80.0	-1133945.0	-1806.0	-5837686.0
16	14	24	52	702	81.0	-1028019.0	-2125.0	-5837292.0
16	14	24	52	702	82.0	-828597.0	-1772.0	-5836698.0
16	14	24	52	702	83.0	-512207.0	-106.0	-5836269.0
16	14	24	52	703	84.0	-80004.0	1061.0	-5837376.0
16	14	24	52	703	85.0	448056.0	2118.0	-5837764.0
16	14	24	52	703	86.0	1005337.0	3017.0	-5837194.0
16	14	24	52	704	87.0	1450726.0	3966.0	-5836646.0
16	14	24	52	704	88.0	1677335.0	3668.0	-5836434.0
16	14	24	52	704	89.0	1632511.0	3922.0	-5837617.0
16	14	24	52	705	90.0	1330314.0	5610.0	-5837428.0
16	14	24	52	705	91.0	838666.0	7435.0	-5836794.0
16	14	24	52	706	92.0	290988.0	8096.0	-5836375.0
16	14	24	52	706	93.0	-189798.0	9154.0	-5837415.0
16	14	24	52	706	94.0	-532121.0	9916.0	-5837406.0
16	14	24	52	707	95.0	-784958.0	10676.0	-5836796.0
16	14	24	52	797	96.0	-1001347.0	10438.0	-5836180.0
16	14	24	52	797	97.0	-1149437.0	11018.0	-5836772.0
16	14	24	52	798	98.0	-1174614.0	12744.0	-5837364.0
16	14	24	52	798	99.0	-1056316.0	13383.0	-5836849.0
16	14	24	52	798	100.0	-810189.0	13526.0	-5836175.0
16	14	24	52	798	101.0	-479784.0	14156.0	-5836088.0
16	14	24	52	798	102.0	-100187.0	15013.0	-5837438.0
16	14	24	52	799	103.0	291902.0	15464.0	-5837454.0
16	14	24	52	799	104.0	637746.0	15723.0	-5836820.0
16	14	24	52	799	105.0	894748.0	16617.0	-5836306.0
16	14	24	52	799	106.0	1039476.0	18796.0	-5836662.0
16	14	24	52	799	107.0	1086989.0	20040.0	-5837645.0
16	14	24	52	800	108.0	1041820.0	20702.0	-5837093.0
16	14	24	52	800	109.0	907736.0	20723.0	-5836511.0
16	14	24	52	800	110.0	686069.0	21139.0	-5836261.0
16	14	24	52	800	111.0	423474.0	21067.0	-5836996.0
16	14	24	52	801	112.0	153594.0	21514.0	-5836595.0
16	14	24	52	801	113.0	-103144.0	22874.0	-5836027.0
16	14	24	52	801	114.0	-319355.0	24130.0	-5836496.0
16	14	24	52	801	115.0	-481128.0	24323.0	-5837307.0
16	14	24	52	802	116.0	-606701.0	25171.0	-5836699.0
16	14	24	52	802	117.0	-707369.0	25849.0	-5836147.0
16	14	24	52	802	118.0	-784948.0	25402.0	-5835711.0
16	14	24	52	802	119.0	-818335.0	25494.0	-5836911.0
16	14	24	52	802	120.0	-793766.0	26056.0	-5837059.0
16	14	24	52	803	121.0	-731832.0	27924.0	-5836500.0
16	14	24	52	803	122.0	-648096.0	29096.0	-5835992.0
16	14	24	52	803	123.0	-544986.0	29034.0	-5837038.0
16	14	24	52	803	124.0	-426575.0	28987.0	-5837316.0
