16	16	6	36	647	163.0	370273.0	28995.0	-877124.0
16	16	6	36	648	164.0	404464.0	26126.0	-876989.0
16	16	6	36	648	165.0	353894.0	23751.0	-877357.0
16	16	6	36	648	166.0	264026.0	22048.0	-877024.0
16	16	6	36	717	167.0	139360.0	19714.0	-877138.0
16	16	6	36	717	168.0	-80948.0	15350.0	-876842.0
16	16	6	36	718	169.0	-434330.0	12331.0	-877012.0
16	16	6	36	718	170.0	-960474.0	11325.0	-876641.0
16	16	6	36	719	171.0	-1565952.0	9483.0	-876762.0
16	16	6	36	719	172.0	-1852662.0	6772.0	-876552.0
16	16	6	36	719	173.0	-1665015.0	6190.0	-876617.0
16	16	6	36	720	174.0	-1291336.0	4961.0	-876641.0
16	16	6	36	720	175.0	-859398.0	2468.0	-876456.0
16	16	6	36	721	176.0	-536127.0	-692.0	-876704.0
16	16	6	36	721	177.0	-291076.0	-1104.0	-876409.0
16	16	6	36	722	178.0	-77365.0	-1900.0	-876762.0
16	16	6	36	722	179.0	25209.0	-5089.0	-876251.0
16	16	6	36	723	180.0	146140.0	-6204.0	-876613.0
16	16	6	36	723	181.0	246831.0	-6497.0	-876306.0
16	16	6	36	724	182.0	170188.0	-7844.0	-876642.0
16	16	6	36	724	183.0	-3328.0	-11084.0	-876518.0
16	16	6	36	725	184.0	-205171.0	-11304.0	-876512.0
16	16	6	36	725	185.0	-432930.0	-11488.0	-876496.0
16	16	6	36	726	186.0	-665934.0	-12867.0	-876235.0
16	16	6	36	745	187.0	-767524.0	-15485.0	-876413.0
16	16	6	36	746	188.0	-700504.0	-15109.0	-876167.0
16	16	6	36	747	189.0	-546586.0	-15077.0	-876367.0
16	16	6	36	747	190.0	-334986.0	-15093.0	-876051.0
16	16	6	36	748	191.0	-57386.0	-15491.0	-876366.0
16	16	6	36	749	192.0	252892.0	-16002.0	-876094.0
16	16	6	36	749	193.0	520128.0	-16054.0	-876220.0
16	16	6	36	750	194.0	758026.0	-16551.0	-876097.0
16	16	6	36	750	195.0	1063277.0	-17348.0	-876027.0
16	16	6	36	750	196.0	1527755.0	-17407.0	-876283.0
16	16	6	36	751	197.0	2034371.0	-17329.0	-875924.0
16	16	6	36	751	198.0	2704389.0	-17474.0	-876157.0
16	16	6	36	751	199.0	3585352.0	-16762.0	-875766.0
16	16	6	36	752	200.0	4510779.0	-17592.0	-876184.0
16	16	6	36	752	201.0	5316712.0	-18076.0	-876037.0
16	16	6	36	752	219.0	2770487.0	-19777.0	-876266.0
16	16	6	36	753	220.0	2601866.0	-22279.0	-876483.0
16	16	6	36	753	221.0	2451334.0	-24843.0	-876104.0
16	16	6	36	761	222.0	2311451.0	-26358.0	-876292.0
16	16	6	36	762	223.0	2191778.0	-27314.0	-875868.0
16	16	6	36	762	224.0	2079323.0	-27939.0	-876155.0
16	16	6	36	787	225.0	1982086.0	-28718.0	-875806.0
16	16	6	36	788	226.0	1934361.0	-28874.0	-876194.0
16	16	6	36	798	227.0	1887698.0	-27137.0	-876030.0
16	16	6	36	798	228.0	1867398.0	-25559.0	-876074.0
16	16	6	36	799	229.0	1878739.0	-24557.0	-876049.0
16	16	6	36	799	230.0	1934387.0	-23715.0	-875816.0
16	16	6	36	800	231.0	2038698.0	-22975.0	-876037.0
16	16	6	36	800	232.0	2161632.0	-22717.0	-875743.0
16	16	6	36	800	233.0	2311513.0	-22196.0	-876067.0
16	16	6	36	801	234.0	2460451.0	-22651.0	-875756.0
16	16	6	36	801	235.0	2579749.0	-22502.0	-876056.0
16	16	6	36	801	236.0	2673949.0	-22055.0	-875804.0
16	16	6	36	801	237.0	2762183.0	-22153.0	-876047.0
16	16	6	36	802	238.0	2842458.0	-21831.0	-876014.0
16	16	6	36	802	239.0	2915864.0	-21607.0	-876010.0
16	16	6	36	802	241.0	3063788.0	-21206.0	-876194.0
16	16	6	36	803	242.0	3130376.0	-21480.0	-876569.0
16	16	6	36	803	243.0	3218371.0	-23976.0	-876019.0
16	16	6	36	815	244.0	3312877.0	-25531.0	-876363.0
16	16	6	36	815	245.0	3402789.0	-26085.0	-876069.0
16	16	6	36	816	246.0	3501193.0	-26169.0	-876379.0
16	16	6	36	816	247.0	3583087.0	-26321.0	-876139.0
16	16	6	36	833	248.0	3622834.0	-26522.0	-876244.0
16	16	6	36	833	249.0	3629700.0	-25368.0	-876127.0
16	16	6	36	849	250.0	3590240.0	-22004.0	-876204.0
16	16	6	36	850	251.0	3533963.0	-20083.0	-876553.0
16	16	6	36	850	252.0	3466358.0	-18289.0	-876439.0
16	16	6	36	850	253.0	3370622.0	-17049.0	-876684.0
16	16	6	36	851	254.0	3268918.0	-16193.0	-876362.0
16	16	6	36	851	255.0	3163630.0	-15629.0	-876624.0
16	16	6	36	851	0.0	3070841.0	-14908.0	-876302.0
16	16	6	36	852	1.0	2999619.0	-13715.0	-876596.0
16	16	6	36	852	2.0	2920508.0	-12919.0	-876322.0
16	16	6	36	852	3.0	2857168.0	-12750.0	-876263.0
16	16	6	36	853	4.0	2831419.0	-12367.0	-876260.0
16	16	6	36	853	5.0	2825518.0	-12145.0	-876125.0
16	16	6	36	853	6.0	2832831.0	-11732.0	-876364.0
16	16	6	36	853	8.0	2826139.0	-10510.0	-876213.0
16	16	6	36	854	9.0	2821858.0	-11798.0	-876001.0
16	16	6	36	854	10.0	2836870.0	-14021.0	-876206.0
16	16	6	36	854	11.0	2854282.0	-15037.0	-875924.0
16	16	6	36	855	12.0	2867279.0	-15797.0	-876284.0
16	16	6	36	855	13.0	2886478.0	-15809.0	-875939.0
16	16	6	36	877	14.0	2868408.0	-15777.0	-876272.0
16	16	6	36	895	15.0	2768906.0	-15541.0	-876011.0
16	16	6	36	895	16.0	2607678.0	-12651.0	-876249.0
16	16	6	36	896	17.0	2388209.0	-10172.0	-876137.0
16	16	6	36	896	18.0	2131495.0	-8839.0	-876048.0
16	16	6	36	896	19.0	1873344.0	-8052.0	-875966.0
16	16	6	36	897	20.0	1618454.0	-7657.0	-875792.0
16	16	6	36	897	21.0	1385082.0	-6861.0	-876039.0
16	16	6	36	897	22.0	1185619.0	-6116.0	-875769.0
16	16	6	36	898	23.0	1042637.0	-5812.0	-876154.0
16	16	6	36	898	24.0	957181.0	-6106.0	-875749.0
16	16	6	36	898	25.0	932795.0	-6002.0	-876121.0
16	16	6	36	898	26.0	944941.0	-5425.0	-875876.0
16	16	6	36	923	27.0	965973.0	-5317.0	-876055.0
16	16	6	36	923	28.0	974802.0	-4687.0	-875877.0
16	16	6	36	944	30.0	890699.0	-4331.0	-875877.0
16	16	6	36	945	31.0	822050.0	-4570.0	-875711.0
16	16	6	36	945	32.0	763846.0	-6742.0	-875972.0
16	16	6	36	946	33.0	715420.0	-8261.0	-875638.0
16	16	6	36	946	34.0	665545.0	-9198.0	-876056.0
16	16	6	36	947	35.0	596673.0	-9361.0	-875678.0
16	16	6	36	947	36.0	489118.0	-7813.0	-875837.0
16	16	6	36	947	37.0	340073.0	-6125.0	-875569.0
16	16	6	36	948	38.0	170354.0	-6109.0	-875701.0
16	16	6	36	948	39.0	-5157.0	-6164.0	-875624.0
16	16	6	36	948	40.0	-178799.0	-6106.0	-875543.0
16	16	6	36	949	41.0	-341329.0	-5861.0	-875546.0
16	16	6	36	949	42.0	-467689.0	-5659.0	-875310.0
16	16	6	36	949	53.0	-57012.0	-7029.0	-875261.0
16	16	6	36	950	54.0	44515.0	-9054.0	-875445.0
16	16	6	36	950	55.0	139663.0	-10780.0	-875112.0
16	16	6	36	950	56.0	202238.0	-11399.0	-875484.0
16	16	6	36	951	57.0	240032.0	-11722.0	-875176.0
16	16	6	36	951	58.0	238643.0	-12051.0	-875519.0
16	16	6	36	968	59.0	183836.0	-12695.0	-875357.0
16	16	6	36	987	60.0	83723.0	-12680.0	-875474.0
16	16	6	36	987	61.0	-50682.0	-10642.0	-875327.0
16	16	6	36	987	62.0	-204619.0	-9268.0	-875254.0
16	16	6	36	988	63.0	-371233.0	-8581.0	-875281.0
16	16	6	36	988	64.0	-528427.0	-8406.0	-875176.0
16	16	6	36	988	65.0	-660898.0	-8105.0	-875587.0
16	16	6	36	988	66.0	-747465.0	-7682.0	-875181.0
16	16	6	36	989	67.0	-796309.0	-6972.0	-875443.0
16	16	6	36	989	68.0	-802999.0	-6766.0	-875033.0
16	16	6	36	989	69.0	-764013.0	-6761.0	-875294.0
16	16	6	36	990	70.0	-672732.0	-6597.0	-875009.0
16	16	6	36	991	71.0	-535799.0	-6304.0	-874997.0
16	16	6	36	992	72.0	-386754.0	-6340.0	-874999.0
16	16	6	36	992	73.0	-245650.0	-5957.0	-875419.0
16	16	6	36	992	75.0	-80035.0	-5317.0	-875532.0
16	16	6	36	993	76.0	-84723.0	-5976.0	-875579.0
16	16	6	36	993	77.0	-159239.0	-8182.0	-875436.0
16	16	6	36	993	78.0	-283652.0	-8956.0	-875527.0
16	16	6	36	994	79.0	-439902.0	-9431.0	-875211.0
16	16	6	36	994	80.0	-620743.0	-9774.0	-875477.0
16	16	6	36	994	81.0	-808096.0	-10251.0	-875235.0
16	16	6	37	13	82.0	-994468.0	-10424.0	-875468.0
16	16	6	37	13	83.0	-1176679.0	-9989.0	-875112.0
16	16	6	37	14	84.0	-1355056.0	-7526.0	-875271.0
16	16	6	37	28	85.0	-1511586.0	-6071.0	-875149.0
16	16	6	37	29	86.0	-1649399.0	-5783.0	-875134.0
16	16	6	37	29	87.0	-1784871.0	-4604.0	-875227.0
16	16	6	37	30	88.0	-1915149.0	-3441.0	-875001.0
16	16	6	37	30	89.0	-2009787.0	-3057.0	-875362.0
16	16	6	37	30	90.0	-2054279.0	-2889.0	-875005.0
16	16	6	37	31	91.0	-2034201.0	-2015.0	-875364.0
16	16	6	37	31	92.0	-1969321.0	-1941.0	-874959.0
16	16	6	37	31	93.0	-1887064.0	-1835.0	-875442.0
16	16	6	37	32	94.0	-1797431.0	-1752.0	-875196.0
16	16	6	37	32	95.0	-1701684.0	-1359.0	-875463.0
16	16	6	37	32	96.0	-1598134.0	-847.0	-875392.0
16	16	6	37	32	98.0	-1367901.0	-521.0	-875399.0
16	16	6	37	33	99.0	-1240416.0	-1773.0	-875194.0
16	16	6	37	33	100.0	-1114456.0	-3586.0	-875555.0
16	16	6	37	33	101.0	-984863.0	-4434.0	-875186.0
16	16	6	37	34	102.0	-872543.0	-4465.0	-875324.0
16	16	6	37	34	103.0	-777944.0	-4416.0	-875039.0
16	16	6	37	59	104.0	-705259.0	-4628.0	-875258.0
16	16	6	37	60	105.0	-638779.0	-4249.0	-875055.0
16	16	6	37	78	106.0	-562857.0	-1986.0	-875422.0
16	16	6	37	79	107.0	-433425.0	-375.0	-875583.0
16	16	6	37	79	108.0	-216823.0	361.0	-875460.0
16	16	6	37	79	109.0	77786.0	293.0	-875714.0
16	16	6	37	80	110.0	419564.0	884.0	-875477.0
16	16	6	37	80	111.0	768201.0	1512.0	-875951.0
16	16	6	37	80	112.0	1091940.0	2231.0	-875573.0
16	16	6	37	81	113.0	1354833.0	2998.0	-875821.0
16	16	6	37	81	114.0	1539842.0	3268.0	-875407.0
16	16	6	37	81	115.0	1641100.0	5131.0	-875799.0
16	16	6	37	82	116.0	1669988.0	5089.0	-875662.0
16	16	6	37	82	117.0	1636864.0	4860.0	-875637.0
16	16	6	37	82	118.0	1557525.0	5035.0	-875565.0
16	16	6	37	82	120.0	1253596.0	4657.0	-875454.0
16	16	6	37	83	121.0	998283.0	4028.0	-875251.0
16	16	6	37	83	122.0	636037.0	1412.0	-875580.0
16	16	6	37	83	123.0	195554.0	611.0	-875244.0
16	16	6	37	84	124.0	-283578.0	-31.0	-875475.0
16	16	6	37	84	125.0	-748707.0	-131.0	-875142.0
16	16	6	37	84	126.0	-1318660.0	101.0	-875447.0
16	16	6	37	103	127.0	-2133231.0	-314.0	-875220.0
16	16	6	37	104	128.0	-3024604.0	531.0	-875214.0
16	16	6	37	104	129.0	-3773297.0	3411.0	-875205.0
16	16	6	37	105	130.0	-4192436.0	5005.0	-874892.0
16	16	6	37	105	131.0	-4163256.0	5934.0	-874839.0
16	16	6	37	106	132.0	-3720342.0	6713.0	-874540.0
16	16	6	37	120	133.0	-3014392.0	7593.0	-874840.0
16	16	6	37	121	134.0	-2200152.0	7883.0	-874594.0
16	16	6	37	121	135.0	-1368804.0	7431.0	-875076.0
16	16	6	37	121	136.0	-577474.0	7213.0	-874711.0
16	16	6	37	122	137.0	120794.0	7721.0	-874963.0
16	16	6	37	122	138.0	640738.0	8158.0	-874776.0
16	16	6	37	122	139.0	894491.0	8098.0	-875041.0
16	16	6	37	123	140.0	891847.0	8076.0	-874975.0
16	16	6	37	123	141.0	575879.0	8361.0	-874952.0
16	16	6	37	125	143.0	-928447.0	7223.0	-874751.0
16	16	6	37	125	144.0	-1760076.0	5291.0	-874818.0
16	16	6	37	126	145.0	-2448823.0	4135.0	-874480.0
16	16	6	37	126	146.0	-2957008.0	3577.0	-874837.0
16	16	6	37	126	147.0	-3242267.0	3204.0	-874456.0
16	16	6	37	127	148.0	-3228666.0	2653.0	-874476.0
16	16	6	37	148	149.0	-2906126.0	2644.0	-874231.0
16	16	6	37	149	150.0	-2385014.0	2921.0	-874334.0
16	16	6	37	162	151.0	-1797281.0	4448.0	-874441.0
16	16	6	37	162	152.0	-1273876.0	5625.0	-874353.0
16	16	6	37	162	153.0	-880451.0	6174.0	-874575.0
16	16	6	37	163	154.0	-600844.0	6948.0	-874411.0
16	16	6	37	163	155.0	-402036.0	7431.0	-874917.0
16	16	6	37	163	156.0	-249254.0	8239.0	-874544.0
16	16	6	37	164	157.0	-123822.0	9189.0	-874824.0
16	16	6	37	164	158.0	-29589.0	9749.0	-874364.0
16	16	6	37	164	159.0	27885.0	9926.0	-874687.0
16	16	6	37	164	160.0	34578.0	10023.0	-874497.0
16	16	6	37	165	161.0	-2038.0	10448.0	-874525.0
16	16	6	37	165	162.0	-61703.0	11063.0	-874491.0
16	16	6	37	166	163.0	-112132.0	11261.0	-874265.0
16	16	6	37	166	165.0	-36346.0	10593.0	-874121.0
16	16	6	37	166	166.0	122611.0	9610.0	-874374.0
16	16	6	37	167	167.0	345513.0	6931.0	-873999.0
16	16	6	37	167	168.0	612533.0	5645.0	-874198.0
16	16	6	37	167	169.0	909630.0	5141.0	-873856.0
16	16	6	37	168	170.0	1196529.0	4192.0	-873933.0
16	16	6	37	168	171.0	1454606.0	3732.0	-873737.0
16	16	6	37	198	172.0	1627529.0	3499.0	-873919.0
16	16	6	37	199	173.0	1695235.0	4124.0	-873833.0
16	16	6	37	199	174.0	1661830.0	6616.0	-873797.0
16	16	6	37	199	175.0	1539942.0	7611.0	-873860.0
16	16	6	37	200	176.0	1338853.0	8333.0	-873708.0
16	16	6	37	213	177.0	1084204.0	9169.0	-874034.0
16	16	6	37	213	178.0	806006.0	9541.0	-873653.0
16	16	6	37	214	179.0	524782.0	9716.0	-873917.0
16	16	6	37	214	180.0	270183.0	9353.0	-873447.0
16	16	6	37	214	181.0	64576.0	9422.0	-873682.0
16	16	6	37	215	182.0	-88504.0	9352.0	-873396.0
16	16	6	37	215	183.0	-172594.0	9147.0	-873493.0
16	16	6	37	216	184.0	-200102.0	9243.0	-873400.0
16	16	6	37	216	185.0	-191638.0	9158.0	-873442.0
16	16	6	37	217	186.0	-139022.0	9339.0	-873682.0
16	16	6	37	217	188.0	-5461.0	9147.0	-873880.0
16	16	6	37	217	189.0	68434.0	6591.0	-873618.0
16	16	6	37	218	190.0	152554.0	5216.0	-874028.0
16	16	6	37	218	191.0	213088.0	4247.0	-873704.0
16	16	6	37	239	192.0	232373.0	3271.0	-873847.0
16	16	6	37	257	193.0	212109.0	3311.0	-873601.0
16	16	6	37	259	194.0	165469.0	3298.0	-873847.0
16	16	6	37	260	195.0	103140.0	5036.0	-874004.0
16	16	6	37	260	196.0	32963.0	7079.0	-873829.0
16	16	6	37	261	197.0	-53041.0	7728.0	-874029.0
16	16	6	37	261	198.0	-145008.0	8267.0	-873754.0
16	16	6	37	261	199.0	-258156.0	8676.0	-874226.0
16	16	6	37	262	200.0	-373067.0	8849.0	-873837.0
16	16	6	37	262	201.0	-473131.0	8907.0	-874201.0
16	16	6	37	262	202.0	-530021.0	8776.0	-873975.0
16	16	6	37	263	203.0	-537590.0	9393.0	-874297.0
16	16	6	37	263	204.0	-524931.0	10267.0	-874107.0
16	16	6	37	263	205.0	-475275.0	10656.0	-874108.0
16	16	6	37	263	206.0	-376124.0	11071.0	-873994.0
16	16	6	37	264	210.0	439505.0	14499.0	-873929.0
16	16	6	37	264	211.0	635032.0	14427.0	-873547.0
16	16	6	37	264	212.0	748383.0	13741.0	-874017.0
16	16	6	37	265	213.0	790483.0	13953.0	-873805.0
16	16	6	37	265	214.0	774312.0	14967.0	-873980.0
16	16	6	37	265	215.0	708826.0	16537.0	-873819.0
16	16	6	37	266	216.0	590226.0	18089.0	-873816.0
16	16	6	37	283	217.0	433460.0	19891.0	-873819.0
16	16	6	37	284	218.0	242136.0	22854.0	-873609.0
16	16	6	37	284	219.0	30557.0	27556.0	-873759.0
16	16	6	37	285	220.0	-191802.0	30823.0	-873473.0
16	16	6	37	296	221.0	-416246.0	33181.0	-873604.0
16	16	6	37	296	222.0	-634814.0	35313.0	-873248.0
16	16	6	37	296	223.0	-830317.0	38354.0	-873664.0
16	16	6	37	297	224.0	-978284.0	41156.0	-873256.0
16	16	6	37	297	225.0	-1085179.0	43653.0	-873516.0
16	16	6	37	297	226.0	-1149463.0	46375.0	-873236.0
16	16	6	37	298	227.0	-1177606.0	48892.0	-873407.0
16	16	6	37	298	228.0	-1166074.0	51112.0	-873492.0
16	16	6	37	298	229.0	-1108907.0	53147.0	-873183.0
16	16	6	37	299	230.0	-1016879.0	55011.0	-873257.0
16	16	6	37	299	231.0	-917556.0	56123.0	-873007.0
16	16	6	37	299	233.0	-709961.0	58455.0	-873034.0
16	16	6	37	300	234.0	-636754.0	57151.0	-873469.0
16	16	6	37	300	235.0	-595327.0	56753.0	-873167.0
16	16	6	37	300	236.0	-602530.0	56621.0	-873396.0
16	16	6	37	329	237.0	-640322.0	56776.0	-873111.0
16	16	6	37	330	238.0	-696055.0	56838.0	-873258.0
16	16	6	37	330	239.0	-759759.0	56918.0	-873260.0
16	16	6	37	331	240.0	-829987.0	57566.0	-873172.0
16	16	6	37	331	241.0	-895142.0	59285.0	-873296.0
16	16	6	37	331	242.0	-942475.0	59713.0	-873025.0
16	16	6	37	332	243.0	-969236.0	59734.0	-873111.0
16	16	6	37	332	244.0	-980856.0	59549.0	-872702.0
16	16	6	37	332	245.0	-973132.0	59132.0	-872962.0
16	16	6	37	333	246.0	-937605.0	58718.0	-872638.0
16	16	6	37	333	247.0	-863316.0	58128.0	-872908.0
16	16	6	37	347	248.0	-734879.0	56786.0	-872665.0
16	16	6	37	347	249.0	-555188.0	55843.0	-872601.0
16	16	6	37	348	250.0	-336519.0	54411.0	-872507.0
16	16	6	37	349	251.0	-102119.0	52913.0	-872407.0
16	16	6	37	349	252.0	122761.0	51343.0	-872516.0
16	16	6	37	350	255.0	553541.0	46303.0	-872675.0
16	16	6	37	351	0.0	595712.0	43139.0	-872952.0
16	16	6	37	351	1.0	594980.0	39418.0	-872584.0
16	16	6	37	352	2.0	539504.0	36463.0	-872763.0
16	16	6	37	352	3.0	432589.0	33443.0	-872329.0
16	16	6	37	353	4.0	269388.0	30513.0	-872494.0
16	16	6	37	354	5.0	49969.0	28456.0	-872218.0
16	16	6	37	375	6.0	-216580.0	26496.0	-872454.0
16	16	6	37	376	7.0	-521869.0	24621.0	-872361.0
16	16	6	37	377	8.0	-872721.0	24679.0	-872444.0
16	16	6	37	378	9.0	-1286397.0	23400.0	-872555.0
16	16	6	37	378	10.0	-1837254.0	21549.0	-872264.0
16	16	6	37	379	11.0	-2521497.0	20224.0	-872446.0
16	16	6	37	381	12.0	-3112698.0	19102.0	-872101.0
16	16	6	37	383	13.0	-3223279.0	17406.0	-872416.0
16	16	6	37	384	14.0	-2819727.0	15486.0	-872092.0
16	16	6	37	385	15.0	-2120412.0	13623.0	-872525.0
16	16	6	37	385	16.0	-1347174.0	11656.0	-872285.0
16	16	6	37	386	17.0	-739388.0	9649.0	-872572.0
16	16	6	37	386	18.0	-237279.0	7951.0	-872318.0
16	16	6	37	387	19.0	135232.0	6451.0	-872399.0
16	16	6	37	387	20.0	296114.0	4524.0	-872358.0
16	16	6	37	388	22.0	252748.0	1147.0	-872434.0
16	16	6	37	388	23.0	-34284.0	-2759.0	-872106.0
16	16	6	37	389	24.0	-383257.0	-5499.0	-872332.0
16	16	6	37	389	25.0	-771780.0	-7820.0	-871960.0
16	16	6	37	390	26.0	-1168206.0	-9459.0	-872267.0
16	16	6	37	399	27.0	-1474699.0	-11038.0	-871967.0
16	16	6	37	418	28.0	-1700757.0	-12052.0	-872181.0
16	16	6	37	418	29.0	-1857737.0	-12258.0	-871875.0
16	16	6	37	419	30.0	-1956319.0	-11488.0	-872117.0
16	16	6	37	420	31.0	-2018559.0	-11677.0	-872059.0
16	16	6	37	420	32.0	-2063724.0	-11927.0	-872204.0
16	16	6	37	421	33.0	-2135135.0	-12142.0	-872359.0
16	16	6	37	422	34.0	-2222229.0	-12136.0	-872145.0
16	16	6	37	422	35.0	-2254794.0	-12707.0	-872502.0
16	16	6	37	423	36.0	-2232896.0	-13284.0	-872137.0
16	16	6	37	423	37.0	-2195270.0	-14135.0	-872500.0
16	16	6	37	435	38.0	-2077251.0	-14164.0	-872143.0
16	16	6	37	435	39.0	-1774344.0	-14686.0	-872327.0
16	16	6	37	436	40.0	-1333982.0	-15724.0	-872181.0
16	16	6	37	436	41.0	-824496.0	-16196.0	-872360.0
16	16	6	37	436	42.0	-304156.0	-16258.0	-872448.0
16	16	6	37	437	44.0	448383.0	-16562.0	-872551.0
16	16	6	37	437	45.0	655986.0	-18365.0	-872240.0
16	16	6	37	437	46.0	789552.0	-20973.0	-872474.0
16	16	6	37	437	47.0	873784.0	-22134.0	-872088.0
16	16	6	37	438	48.0	926529.0	-23137.0	-872476.0
16	16	6	37	438	49.0	941376.0	-23833.0	-872147.0
16	16	6	37	463	50.0	913964.0	-24473.0	-872341.0
16	16	6	37	463	51.0	859703.0	-25043.0	-871970.0
16	16	6	37	479	52.0	771330.0	-23161.0	-872051.0
16	16	6	37	480	53.0	652613.0	-21393.0	-872012.0
16	16	6	37	480	54.0	535409.0	-21689.0	-871929.0
16	16	6	37	480	55.0	450659.0	-21456.0	-872046.0
16	16	6	37	480	56.0	398518.0	-21234.0	-871786.0
16	16	6	37	481	57.0	362758.0	-20985.0	-871985.0
16	16	6	37	481	58.0	342418.0	-21689.0	-871754.0
16	16	6	37	481	59.0	337043.0	-21811.0	-872251.0
16	16	6	37	482	60.0	337603.0	-21949.0	-872005.0
16	16	6	37	482	61.0	332578.0	-22184.0	-872269.0
16	16	6	37	482	62.0	316514.0	-22279.0	-871951.0
16	16	6	37	482	63.0	286863.0	-22481.0	-872051.0
16	16	6	37	483	64.0	238138.0	-22729.0	-871936.0
16	16	6	37	483	66.0	119367.0	-22870.0	-871912.0
16	16	6	37	483	67.0	67656.0	-23551.0	-872022.0
16	16	6	37	484	68.0	39966.0	-25387.0	-872111.0
16	16	6	37	484	69.0	35090.0	-26304.0	-871872.0
16	16	6	37	484	70.0	37665.0	-26921.0	-872202.0
16	16	6	37	485	71.0	36323.0	-27431.0	-871827.0
16	16	6	37	485	72.0	26005.0	-27786.0	-872221.0
16	16	6	37	509	73.0	2273.0	-28101.0	-871941.0
16	16	6	37	509	74.0	-46142.0	-28026.0	-872217.0
16	16	6	37	509	75.0	-131249.0	-26544.0	-872072.0
16	16	6	37	529	76.0	-246561.0	-25621.0	-872177.0
16	16	6	37	530	77.0	-376561.0	-24509.0	-872105.0
16	16	6	37	530	78.0	-520660.0	-24228.0	-872017.0
16	16	6	37	530	79.0	-668411.0	-23041.0	-872088.0
16	16	6	37	531	80.0	-811418.0	-22445.0	-871874.0
16	16	6	37	531	81.0	-928858.0	-22391.0	-872250.0
16	16	6	37	531	82.0	-1014154.0	-22262.0	-871849.0
16	16	6	37	531	83.0	-1067265.0	-21751.0	-872172.0
16	16	6	37	532	84.0	-1088947.0	-21145.0	-871802.0
16	16	6	37	532	85.0	-1088153.0	-20619.0	-872069.0
16	16	6	37	532	86.0	-1069482.0	-20233.0	-871802.0
16	16	6	37	532	87.0	-1045879.0	-19272.0	-872015.0
16	16	6	37	533	89.0	-1012914.0	-18639.0	-872103.0
16	16	6	37	533	90.0	-1004355.0	-19530.0	-872327.0
16	16	6	37	533	91.0	-983462.0	-20755.0	-872114.0
16	16	6	37	533	92.0	-948401.0	-21167.0	-872489.0
16	16	6	37	533	93.0	-908331.0	-21192.0	-872093.0
16	16	6	37	534	94.0	-859807.0	-21075.0	-872351.0
16	16	6	37	552	95.0	-790813.0	-20594.0	-872056.0
16	16	6	37	553	96.0	-692471.0	-20197.0	-872285.0
16	16	6	37	564	97.0	-570293.0	-18185.0	-872021.0
16	16	6	37	564	98.0	-434084.0	-16796.0	-872156.0
16	16	6	37	565	99.0	-288585.0	-15560.0	-872063.0
16	16	6	37	565	100.0	-136620.0	-14491.0	-871912.0
16	16	6	37	565	101.0	8148.0	-13286.0	-872222.0
16	16	6	37	565	102.0	124856.0	-12334.0	-871940.0
16	16	6	37	566	103.0	222128.0	-11338.0	-872291.0
16	16	6	37	566	104.0	295557.0	-10292.0	-871952.0
16	16	6	37	566	105.0	339027.0	-10058.0	-872386.0
16	16	6	37	566	106.0	355815.0	-9622.0	-872211.0
16	16	6	37	567	107.0	344444.0	-8984.0	-872459.0
16	16	6	37	567	108.0	303383.0	-8712.0	-872249.0
16	16	6	37	567	109.0	232423.0	-8464.0	-872300.0
16	16	6	37	567	111.0	66120.0	-7519.0	-872633.0
16	16	6	37	581	112.0	-24565.0	-7566.0	-872764.0
16	16	6	37	582	113.0	-136570.0	-9574.0	-872612.0
16	16	6	37	582	114.0	-253093.0	-10412.0	-872878.0
16	16	6	37	582	115.0	-364319.0	-10651.0	-872462.0
16	16	6	37	582	116.0	-452962.0	-11209.0	-872593.0
16	16	6	37	583	117.0	-529446.0	-10966.0	-872246.0
16	16	6	37	598	118.0	-583845.0	-10524.0	-872397.0
16	16	6	37	599	119.0	-617704.0	-9553.0	-872079.0
16	16	6	37	599	120.0	-625222.0	-7886.0	-872261.0
16	16	6	37	616	121.0	-611991.0	-6377.0	-872152.0
16	16	6	37	616	122.0	-590772.0	-5166.0	-872271.0
16	16	6	37	616	123.0	-550697.0	-4306.0	-872714.0
16	16	6	37	617	124.0	-503330.0	-4096.0	-872494.0
16	16	6	37	617	125.0	-455014.0	-4022.0	-872788.0
16	16	6	37	645	126.0	-408041.0	-4006.0	-872386.0
16	16	6	37	663	127.0	-369331.0	-3443.0	-872789.0
16	16	6	37	664	128.0	-338765.0	-2793.0	-872361.0
16	16	6	37	664	129.0	-301387.0	-2334.0	-872631.0
16	16	6	37	664	130.0	-264974.0	-2437.0	-872491.0
16	16	6	37	665	131.0	-233719.0	-2284.0	-872727.0
16	16	6	37	665	132.0	-203975.0	-2406.0	-872411.0
16	16	6	37	666	134.0	-139482.0	-3200.0	-872682.0
16	16	6	37	666	135.0	-107046.0	-5152.0	-872811.0
16	16	6	37	667	136.0	-70292.0	-6698.0	-873027.0
16	16	6	37	667	137.0	-29317.0	-6829.0	-872794.0
16	16	6	37	668	138.0	22399.0	-5029.0	-872977.0
16	16	6	37	668	139.0	82095.0	-4344.0	-872726.0
16	16	6	37	669	140.0	145556.0	-4039.0	-873010.0
16	16	6	37	669	141.0	205750.0	-4065.0	-872726.0
16	16	6	37	670	156.0	635836.0	-6294.0	-872781.0
16	16	6	37	670	157.0	644193.0	-7254.0	-873052.0
16	16	6	37	671	158.0	658789.0	-9964.0	-873007.0
16	16	6	37	671	159.0	672694.0	-11543.0	-873172.0
16	16	6	37	672	160.0	682537.0	-12227.0	-873573.0
16	16	6	37	672	161.0	684416.0	-12680.0	-873300.0
16	16	6	37	672	162.0	676287.0	-13058.0	-873428.0
16	16	6	37	691	163.0	666623.0	-13362.0	-873036.0
16	16	6	37	691	164.0	668809.0	-13151.0	-873351.0
16	16	6	37	691	165.0	685986.0	-11252.0	-873179.0
16	16	6	37	692	166.0	713371.0	-9497.0	-873362.0
16	16	6	37	692	167.0	763186.0	-8769.0	-873218.0
16	16	6	37	713	168.0	823082.0	-8905.0	-873241.0
16	16	6	37	714	169.0	888632.0	-8634.0	-873441.0
16	16	6	37	714	170.0	956141.0	-7707.0	-873116.0
16	16	6	37	714	171.0	1028630.0	-7084.0	-873282.0
16	16	6	37	715	172.0	1102243.0	-7416.0	-872954.0
16	16	6	37	715	173.0	1166654.0	-7228.0	-873374.0
16	16	6	37	715	174.0	1212453.0	-6595.0	-872936.0
16	16	6	37	715	175.0	1243089.0	-6655.0	-873167.0
16	16	6	37	716	176.0	1254818.0	-6729.0	-872987.0
16	16	6	37	716	177.0	1262303.0	-6708.0	-873209.0
16	16	6	37	716	179.0	1208474.0	-6851.0	-873492.0
16	16	6	37	716	180.0	1150516.0	-8494.0	-873065.0
16	16	6	37	717	181.0	1077436.0	-9975.0	-873415.0
16	16	6	37	717	182.0	974747.0	-10641.0	-873092.0
16	16	6	37	717	183.0	843507.0	-10836.0	-873337.0
16	16	6	37	718	184.0	690810.0	-11182.0	-873173.0
16	16	6	37	733	185.0	530676.0	-11731.0	-873180.0
16	16	6	37	749	186.0	369530.0	-11239.0	-873146.0
16	16	6	37	749	187.0	205286.0	-8780.0	-873084.0
16	16	6	37	749	188.0	47041.0	-7319.0	-873194.0
16	16	6	37	750	189.0	-104006.0	-7078.0	-872922.0
16	16	6	37	750	190.0	-235268.0	-6757.0	-873167.0
16	16	6	37	750	191.0	-330882.0	-5916.0	-872781.0
16	16	6	37	750	192.0	-397559.0	-4971.0	-873082.0
16	16	6	37	751	193.0	-439965.0	-4694.0	-872732.0
16	16	6	37	751	194.0	-457258.0	-4749.0	-872969.0
16	16	6	37	751	195.0	-456886.0	-4292.0	-872703.0
16	16	6	37	751	196.0	-445395.0	-4184.0	-872769.0
16	16	6	37	752	197.0	-420831.0	-3946.0	-872724.0
16	16	6	37	752	198.0	-380109.0	-3840.0	-872602.0
16	16	6	37	752	199.0	-334592.0	-3592.0	-872837.0
16	16	6	37	752	201.0	-279391.0	-1854.0	-872801.0
16	16	6	37	752	202.0	-261334.0	-2557.0	-872361.0
16	16	6	37	753	203.0	-249555.0	-4117.0	-872744.0
16	16	6	37	753	204.0	-232923.0	-5312.0	-872497.0
16	16	6	37	753	205.0	-207139.0	-5385.0	-872881.0
16	16	6	37	753	206.0	-175782.0	-5453.0	-872599.0
16	16	6	37	754	207.0	-138934.0	-5447.0	-872704.0
16	16	6	37	778	208.0	-92842.0	-5364.0	-872576.0
16	16	6	37	797	209.0	-38253.0	-4835.0	-872602.0
16	16	6	37	797	210.0	22014.0	-2751.0	-872741.0
16	16	6	37	798	211.0	83151.0	-1462.0	-872471.0
16	16	6	37	798	212.0	128196.0	-128.0	-872769.0
16	16	6	37	798	213.0	153128.0	754.0	-872466.0
16	16	6	37	798	214.0	151513.0	1258.0	-872628.0
16	16	6	37	799	215.0	121056.0	1746.0	-872262.0
16	16	6	37	799	216.0	65963.0	2279.0	-872579.0
16	16	6	37	799	217.0	10721.0	2665.0	-872321.0
16	16	6	37	800	218.0	-25254.0	3188.0	-872441.0
16	16	6	37	800	219.0	-37636.0	3807.0	-872315.0
16	16	6	37	800	220.0	-20430.0	4588.0	-872267.0
16	16	6	37	800	221.0	36414.0	5127.0	-872273.0
16	16	6	37	801	222.0	127263.0	5719.0	-872118.0
16	16	6	37	801	224.0	349389.0	5751.0	-872076.0
16	16	6	37	801	225.0	459893.0	3814.0	-872284.0
16	16	6	37	801	226.0	557121.0	2334.0	-871914.0
16	16	6	37	802	227.0	629506.0	1897.0	-872205.0
16	16	6	37	802	228.0	672348.0	1464.0	-871741.0
16	16	6	37	802	229.0	690783.0	893.0	-872067.0
16	16	6	37	825	230.0	677313.0	1019.0	-871987.0
16	16	6	37	825	231.0	646625.0	1452.0	-872072.0
16	16	6	37	826	232.0	580024.0	4024.0	-872091.0
16	16	6	37	826	233.0	421214.0	5508.0	-871902.0
16	16	6	37	848	234.0	-78006.0	6168.0	-872186.0
16	16	6	37	849	235.0	-1048209.0	6940.0	-871844.0
16	16	6	37	849	236.0	-2165926.0	7154.0	-871994.0
16	16	6	37	850	237.0	-3069924.0	7299.0	-871533.0
16	16	6	37	850	238.0	-3612885.0	7771.0	-871838.0
16	16	6	37	850	239.0	-3722639.0	7878.0	-871586.0
16	16	6	37	851	240.0	-3458325.0	7953.0	-871799.0
16	16	6	37	851	241.0	-2943079.0	8082.0	-871748.0
16	16	6	37	851	242.0	-2206039.0	8159.0	-871679.0
16	16	6	37	852	243.0	-1254385.0	8248.0	-871829.0
16	16	6	37	852	244.0	-181532.0	8150.0	-871574.0
16	16	6	37	853	246.0	1425295.0	8591.0	-871793.0
16	16	6	37	853	247.0	1690733.0	7219.0	-871828.0
16	16	6	37	853	248.0	1715151.0	5432.0	-871873.0
16	16	6	37	854	249.0	1559521.0	4427.0	-872098.0
16	16	6	37	854	250.0	1103986.0	4046.0	-871837.0
16	16	6	37	854	251.0	321817.0	3710.0	-872021.0
16	16	6	37	855	252.0	-602252.0	3751.0	-871662.0
16	16	6	37	874	253.0	-1440609.0	3742.0	-871734.0
16	16	6	37	875	254.0	-2051072.0	4196.0	-871336.0
16	16	6	37	875	255.0	-2365598.0	6729.0	-871534.0
16	16	6	37	876	0.0	-2380586.0	7891.0	-871303.0
16	16	6	37	876	1.0	-2142942.0	8475.0	-871498.0
16	16	6	37	876	2.0	-1722468.0	8691.0	-871357.0
16	16	6	37	877	3.0	-1250202.0	9109.0	-871329.0
16	16	6	37	877	4.0	-838571.0	9517.0	-871438.0
16	16	6	37	896	5.0	-528336.0	10191.0	-871211.0
16	16	6	37	896	6.0	-276590.0	10521.0	-871403.0
16	16	6	37	896	7.0	-13516.0	10398.0	-871066.0
16	16	6	37	897	8.0	269246.0	10295.0	-871469.0
16	16	6	37	897	9.0	521251.0	10644.0	-871061.0
16	16	6	37	897	10.0	717309.0	10753.0	-871471.0
16	16	6	37	897	11.0	833376.0	10606.0	-871142.0
16	16	6	37	898	13.0	832249.0	11032.0	-871053.0
16	16	6	37	898	14.0	754595.0	8735.0	-871301.0
16	16	6	37	898	15.0	665823.0	6998.0	-871347.0
16	16	6	37	898	16.0	601926.0	6206.0	-871242.0
16	16	6	37	899	17.0	575209.0	5596.0	-871442.0
16	16	6	37	899	18.0	605396.0	5123.0	-871241.0
16	16	6	37	959	19.0	692220.0	4370.0	-871535.0
16	16	6	37	960	20.0	823457.0	4372.0	-871284.0
16	16	6	38	4	21.0	988366.0	6542.0	-871840.0
16	16	6	38	53	22.0	1160397.0	8261.0	-871647.0
16	16	6	38	55	23.0	1305096.0	9098.0	-871884.0
16	16	6	38	58	24.0	1401544.0	9464.0	-871833.0
16	16	6	38	60	25.0	1429263.0	10201.0	-871761.0
16	16	6	38	61	26.0	1414467.0	10641.0	-871957.0
16	16	6	38	63	27.0	1343647.0	10621.0	-871971.0
16	16	6	38	64	28.0	1237771.0	10464.0	-872371.0
16	16	6	38	66	29.0	1094518.0	11103.0	-872002.0
16	16	6	38	67	30.0	944771.0	11161.0	-872317.0
16	16	6	38	68	31.0	802387.0	11103.0	-871747.0
16	16	6	38	69	32.0	655226.0	11344.0	-871821.0
16	16	6	38	69	33.0	514025.0	11137.0	-871609.0
16	16	6	38	70	58.0	24263.0	11138.0	-872412.0
16	16	6	38	71	59.0	66847.0	10520.0	-872121.0
16	16	6	38	71	80.0	213749.0	56033.0	-872199.0
16	16	6	38	72	103.0	-171039.0	48768.0	-871767.0
16	16	6	38	73	104.0	-119414.0	44922.0	-872202.0
16	16	6	38	74	105.0	-44010.0	41751.0	-871878.0
16	16	6	38	74	106.0	68993.0	38969.0	-871966.0
16	16	6	38	75	107.0	205759.0	36079.0	-871809.0
16	16	6	38	76	108.0	356602.0	33447.0	-871954.0
16	16	6	38	93	109.0	509804.0	31004.0	-871894.0
16	16	6	38	94	110.0	651958.0	29821.0	-871773.0
16	16	6	38	94	111.0	775433.0	29782.0	-871945.0
16	16	6	38	95	112.0	882651.0	28385.0	-871771.0
16	16	6	38	95	113.0	977067.0	27065.0	-872091.0
16	16	6	38	96	114.0	1055324.0	25512.0	-871677.0
16	16	6	38	115	115.0	1104126.0	24079.0	-871901.0
16	16	6	38	115	116.0	1113776.0	22625.0	-871498.0
16	16	6	38	116	117.0	1069724.0	20243.0	-871733.0
16	16	6	38	116	118.0	961667.0	18223.0	-871479.0
16	16	6	38	116	119.0	768919.0	16588.0	-871347.0
16	16	6	38	117	120.0	443396.0	14783.0	-871297.0
16	16	6	38	117	121.0	-106986.0	12752.0	-871393.0
16	16	6	38	117	122.0	-877190.0	10609.0	-871194.0
16	16	6	38	118	123.0	-1548504.0	8373.0	-871109.0
16	16	6	38	118	125.0	-1123703.0	5266.0	-870996.0
16	16	6	38	118	126.0	-527761.0	2224.0	-871254.0
16	16	6	38	119	127.0	-80431.0	-1111.0	-871052.0
16	16	6	38	119	128.0	214371.0	-3396.0	-871321.0
16	16	6	38	119	129.0	462859.0	-5296.0	-871029.0
16	16	6	38	119	130.0	587511.0	-7588.0	-871424.0
16	16	6	38	138	131.0	608803.0	-9267.0	-871177.0
16	16	6	38	138	132.0	627180.0	-10262.0	-871196.0
16	16	6	38	139	133.0	549947.0	-9694.0	-871147.0
16	16	6	38	154	134.0	353606.0	-9430.0	-871105.0
16	16	6	38	154	135.0	81631.0	-10157.0	-871182.0
16	16	6	38	154	136.0	-256475.0	-10972.0	-870894.0
16	16	6	38	154	137.0	-607443.0	-11451.0	-871204.0
16	16	6	38	155	138.0	-937596.0	-12261.0	-870752.0
16	16	6	38	155	139.0	-1196614.0	-12179.0	-871190.0
16	16	6	38	155	140.0	-1379522.0	-12640.0	-870859.0
16	16	6	38	156	141.0	-1546902.0	-13481.0	-871346.0
16	16	6	38	156	142.0	-1630980.0	-14150.0	-871129.0
16	16	6	38	156	143.0	-1595006.0	-14962.0	-871474.0
16	16	6	38	156	144.0	-1513882.0	-15501.0	-871467.0
16	16	6	38	157	145.0	-1377177.0	-16529.0	-871470.0
16	16	6	38	157	147.0	-914668.0	-16942.0	-871495.0
16	16	6	38	157	148.0	-741516.0	-18074.0	-871819.0
16	16	6	38	157	149.0	-606640.0	-20627.0	-871517.0
16	16	6	38	158	150.0	-465470.0	-21869.0	-871795.0
16	16	6	38	158	151.0	-304460.0	-22802.0	-871515.0
16	16	6	38	158	152.0	-129034.0	-23151.0	-871680.0
16	16	6	38	158	153.0	35608.0	-23591.0	-871552.0
16	16	6	38	183	154.0	169893.0	-24043.0	-871549.0
16	16	6	38	183	155.0	247211.0	-23866.0	-871636.0
16	16	6	38	197	156.0	257643.0	-22217.0	-871401.0
16	16	6	38	198	157.0	201498.0	-20696.0	-871503.0
16	16	6	38	198	158.0	99631.0	-20409.0	-871171.0
16	16	6	38	199	159.0	-25418.0	-20477.0	-871463.0
16	16	6	38	199	160.0	-161294.0	-20240.0	-871081.0
16	16	6	38	199	161.0	-302149.0	-19739.0	-871464.0
16	16	6	38	199	162.0	-440864.0	-19731.0	-871136.0
16	16	6	38	200	163.0	-565423.0	-19567.0	-871409.0
16	16	6	38	200	164.0	-665430.0	-19559.0	-870997.0
16	16	6	38	200	165.0	-721779.0	-19677.0	-871211.0
16	16	6	38	201	166.0	-742491.0	-18911.0	-870867.0
16	16	6	38	201	167.0	-730934.0	-18947.0	-871132.0
16	16	6	38	201	168.0	-706485.0	-20014.0	-871066.0
16	16	6	38	201	170.0	-635631.0	-20605.0	-871078.0
16	16	6	38	202	171.0	-578580.0	-22108.0	-871007.0
16	16	6	38	202	172.0	-492282.0	-24205.0	-871208.0
16	16	6	38	202	173.0	-394852.0	-25086.0	-870941.0
16	16	6	38	203	174.0	-291900.0	-26339.0	-871137.0
16	16	6	38	203	175.0	-205501.0	-27020.0	-870830.0
16	16	6	38	228	176.0	-138119.0	-27501.0	-871281.0
16	16	6	38	228	177.0	-105637.0	-28085.0	-871079.0
16	16	6	38	249	178.0	-110363.0	-26509.0	-871104.0
16	16	6	38	249	179.0	-121866.0	-24959.0	-870990.0
16	16	6	38	250	180.0	-114300.0	-24341.0	-870825.0
16	16	6	38	250	181.0	-82397.0	-23880.0	-870894.0
16	16	6	38	251	182.0	-51970.0	-22901.0	-870569.0
16	16	6	38	251	183.0	-2857.0	-22341.0	-870997.0
16	16	6	38	252	184.0	63206.0	-22154.0	-870661.0
16	16	6	38	252	185.0	129323.0	-21922.0	-871184.0
16	16	6	38	253	186.0	199444.0	-21522.0	-870832.0
16	16	6	38	253	187.0	273984.0	-21182.0	-871141.0
16	16	6	38	254	188.0	348876.0	-20907.0	-870872.0
16	16	6	38	254	189.0	405062.0	-20328.0	-870986.0
16	16	6	38	254	190.0	450377.0	-20370.0	-870699.0
16	16	6	38	255	192.0	581443.0	-19310.0	-870737.0
16	16	6	38	256	193.0	660870.0	-20103.0	-870488.0
16	16	6	38	256	194.0	750004.0	-22179.0	-870542.0
16	16	6	38	256	195.0	847794.0	-22951.0	-870209.0
16	16	6	38	257	196.0	927130.0	-23594.0	-870544.0
16	16	6	38	257	197.0	964797.0	-23378.0	-870237.0
16	16	6	38	258	198.0	970523.0	-23441.0	-870509.0
16	16	6	38	275	199.0	934847.0	-23417.0	-870349.0
16	16	6	38	295	200.0	855380.0	-22518.0	-870361.0
16	16	6	38	295	201.0	747094.0	-20201.0	-870271.0
16	16	6	38	296	202.0	633063.0	-18741.0	-870246.0
16	16	6	38	296	203.0	508023.0	-17552.0	-870479.0
16	16	6	38	296	204.0	376289.0	-17029.0	-870139.0
16	16	6	38	297	205.0	246023.0	-16722.0	-870279.0
16	16	6	38	297	206.0	117812.0	-16175.0	-870283.0
16	16	6	38	297	207.0	-18677.0	-15074.0	-870411.0
16	16	6	38	298	208.0	-149490.0	-13929.0	-870116.0
16	16	6	38	298	209.0	-251177.0	-13514.0	-870329.0
16	16	6	38	298	210.0	-310329.0	-12934.0	-869931.0
16	16	6	38	298	211.0	-324022.0	-12211.0	-870076.0
16	16	6	38	299	212.0	-285161.0	-12134.0	-869631.0
16	16	6	38	299	213.0	-207529.0	-11636.0	-869882.0
16	16	6	38	299	215.0	31708.0	-10925.0	-869783.0
16	16	6	38	300	216.0	181354.0	-12019.0	-869771.0
16	16	6	38	300	217.0	341834.0	-13256.0	-869836.0
16	16	6	38	300	218.0	492713.0	-13933.0	-870229.0
16	16	6	38	300	219.0	607453.0	-13979.0	-869990.0
16	16	6	38	301	220.0	685791.0	-13622.0	-870177.0
16	16	6	38	317	221.0	725325.0	-13371.0	-869851.0
16	16	6	38	330	222.0	725747.0	-13666.0	-870115.0
16	16	6	38	331	223.0	683043.0	-11538.0	-869705.0
16	16	6	38	363	224.0	602634.0	-9944.0	-869888.0
16	16	6	38	364	225.0	477465.0	-8684.0	-869524.0
16	16	6	38	409	226.0	324861.0	-7929.0	-869724.0
16	16	6	38	409	227.0	151774.0	-7071.0	-869552.0
16	16	6	38	416	228.0	-33178.0	-6514.0	-869349.0
16	16	6	38	417	229.0	-220296.0	-6228.0	-869474.0
16	16	6	38	417	230.0	-398917.0	-6182.0	-869559.0
16	16	6	38	418	231.0	-557983.0	-6017.0	-869594.0
16	16	6	38	418	232.0	-699289.0	-5202.0	-869431.0
16	16	6	38	419	233.0	-840036.0	-4966.0	-869627.0
16	16	6	38	419	234.0	-953467.0	-4993.0	-869236.0
16	16	6	38	444	235.0	-1022417.0	-5000.0	-869397.0
16	16	6	38	445	237.0	-1053356.0	-4704.0	-869315.0
16	16	6	38	446	238.0	-1044443.0	-5548.0	-868988.0
16	16	6	38	446	239.0	-1024957.0	-7303.0	-869447.0
16	16	6	38	446	4.0	227851.0	-6534.0	-868687.0
16	16	6	38	447	5.0	132390.0	-8097.0	-869074.0
16	16	6	38	447	6.0	10366.0	-8017.0	-868741.0
16	16	6	38	448	27.0	-601698.0	-8752.0	-868829.0
16	16	6	38	448	28.0	-510164.0	-10712.0	-868616.0
16	16	6	38	448	29.0	-390466.0	-11674.0	-868781.0
16	16	6	38	449	30.0	-250004.0	-12219.0	-868528.0
16	16	6	38	449	31.0	-100754.0	-12509.0	-868965.0
16	16	6	38	449	32.0	54594.0	-12450.0	-868659.0
16	16	6	38	468	33.0	204058.0	-12432.0	-868871.0
16	16	6	38	468	34.0	336718.0	-12199.0	-868759.0
16	16	6	38	469	35.0	458668.0	-10502.0	-868725.0
16	16	6	38	469	36.0	578189.0	-9036.0	-868882.0
16	16	6	38	469	37.0	688227.0	-8114.0	-868737.0
16	16	6	38	469	38.0	788353.0	-6751.0	-869019.0
16	16	6	38	470	39.0	880169.0	-6005.0	-868595.0
16	16	6	38	470	40.0	948372.0	-5806.0	-868976.0
16	16	6	38	470	41.0	1001037.0	-5757.0	-868758.0
16	16	6	38	471	42.0	1020148.0	-5745.0	-869012.0
16	16	6	38	471	43.0	1016810.0	-5791.0	-868716.0
16	16	6	38	471	44.0	997379.0	-5031.0	-869051.0
16	16	6	38	472	45.0	966800.0	-4616.0	-868650.0
16	16	6	38	472	46.0	948062.0	-3452.0	-869082.0
16	16	6	38	472	47.0	943159.0	-3155.0	-868884.0
16	16	6	38	472	49.0	915331.0	-3039.0	-868819.0
16	16	6	38	473	50.0	872852.0	-5049.0	-868849.0
16	16	6	38	473	51.0	812838.0	-6649.0	-868937.0
16	16	6	38	473	52.0	734416.0	-7043.0	-868695.0
16	16	6	38	474	53.0	638354.0	-7181.0	-869009.0
16	16	6	38	486	54.0	532904.0	-7240.0	-868677.0
16	16	6	38	504	55.0	430136.0	-7105.0	-868917.0
16	16	6	38	505	56.0	339623.0	-6407.0	-868605.0
16	16	6	38	505	57.0	268793.0	-4097.0	-868945.0
16	16	6	38	505	58.0	222938.0	-2398.0	-868797.0
16	16	6	38	506	59.0	201971.0	-1586.0	-868844.0
16	16	6	38	506	60.0	193196.0	-739.0	-868779.0
16	16	6	38	506	61.0	202643.0	-553.0	-868806.0
16	16	6	38	507	62.0	223894.0	-349.0	-868876.0
16	16	6	38	507	63.0	232704.0	217.0	-868647.0
16	16	6	38	507	64.0	236231.0	1097.0	-868842.0
16	16	6	38	507	65.0	243791.0	1476.0	-868779.0
16	16	6	38	508	66.0	250461.0	1306.0	-868995.0
16	16	6	38	508	67.0	262714.0	1265.0	-868586.0
16	16	6	38	508	68.0	277694.0	2151.0	-868769.0
16	16	6	38	508	69.0	296461.0	2698.0	-868333.0
16	16	6	38	522	71.0	290333.0	3132.0	-868147.0
16	16	6	38	522	72.0	277362.0	2768.0	-868399.0
16	16	6	38	523	73.0	252525.0	685.0	-868239.0
16	16	6	38	523	74.0	213265.0	-202.0	-868323.0
16	16	6	38	523	75.0	161792.0	-1260.0	-868358.0
16	16	6	38	524	76.0	97308.0	-1579.0	-868346.0
16	16	6	38	524	77.0	26073.0	-1537.0	-868519.0
16	16	6	38	543	78.0	-47852.0	-1744.0	-868186.0
16	16	6	38	564	79.0	-123442.0	-1058.0	-868403.0
16	16	6	38	565	80.0	-187452.0	1032.0	-868095.0
16	16	6	38	565	81.0	-237741.0	2046.0	-868624.0
16	16	6	38	566	82.0	-267941.0	3272.0	-868227.0
16	16	6	38	566	83.0	-282374.0	4092.0	-868432.0
16	16	6	38	567	84.0	-281690.0	4995.0	-868161.0
16	16	6	38	567	85.0	-281337.0	5899.0	-868239.0
16	16	6	38	567	86.0	-290963.0	6721.0	-868252.0
16	16	6	38	568	87.0	-310242.0	7508.0	-868132.0
16	16	6	38	568	88.0	-334461.0	7392.0	-868262.0
16	16	6	38	568	89.0	-356623.0	7091.0	-868028.0
16	16	6	38	569	90.0	-375843.0	6988.0	-868397.0
16	16	6	38	569	91.0	-392862.0	6483.0	-868184.0
16	16	6	38	569	92.0	-407523.0	6823.0	-868547.0
16	16	6	38	570	94.0	-427334.0	6758.0	-868222.0
16	16	6	38	570	95.0	-444811.0	5285.0	-867922.0
16	16	6	38	570	96.0	-476068.0	3949.0	-868058.0
16	16	6	38	571	97.0	-519182.0	3454.0	-867977.0
16	16	6	38	571	98.0	-553624.0	3001.0	-867967.0
16	16	6	38	571	99.0	-567839.0	3226.0	-868147.0
16	16	6	38	588	100.0	-549591.0	2907.0	-867822.0
16	16	6	38	603	101.0	-503584.0	3032.0	-868013.0
16	16	6	38	604	102.0	-424277.0	5056.0	-867667.0
16	16	6	38	604	103.0	-328068.0	5989.0	-868053.0
16	16	6	38	605	104.0	-220804.0	6568.0	-867722.0
16	16	6	38	605	105.0	-118607.0	7139.0	-867984.0
16	16	6	38	605	106.0	-16891.0	7808.0	-867724.0
16	16	6	38	606	107.0	80862.0	8601.0	-867872.0
16	16	6	38	606	108.0	164113.0	8813.0	-867856.0
16	16	6	38	606	109.0	226489.0	9137.0	-868256.0
16	16	6	38	607	110.0	265949.0	8613.0	-868133.0
16	16	6	38	607	111.0	279723.0	8521.0	-868167.0
16	16	6	38	607	112.0	263352.0	8473.0	-868304.0
16	16	6	38	607	113.0	213873.0	8395.0	-868114.0
16	16	6	38	608	114.0	147892.0	8858.0	-868050.0
16	16	6	38	608	116.0	50458.0	8793.0	-867845.0
16	16	6	38	608	117.0	45478.0	7800.0	-867534.0
16	16	6	38	608	118.0	89654.0	6002.0	-867794.0
16	16	6	38	609	119.0	189506.0	5193.0	-867581.0
16	16	6	38	609	120.0	339702.0	4708.0	-867795.0
16	16	6	38	609	121.0	538224.0	3519.0	-867742.0
16	16	6	38	610	122.0	763396.0	2887.0	-867722.0
16	16	6	38	634	123.0	987461.0	2800.0	-867844.0
16	16	6	38	634	124.0	1179500.0	3880.0	-867714.0
16	16	6	38	634	125.0	1335820.0	6164.0	-868087.0
16	16	6	38	649	126.0	1457247.0	7529.0	-867793.0
16	16	6	38	649	127.0	1537243.0	8104.0	-868230.0
16	16	6	38	650	128.0	1574814.0	8466.0	-867774.0
16	16	6	38	650	129.0	1575235.0	9313.0	-868007.0
16	16	6	38	650	130.0	1523774.0	9531.0	-867749.0
16	16	6	38	651	131.0	1381923.0	9154.0	-868189.0
16	16	6	38	651	132.0	1171869.0	9125.0	-867867.0
16	16	6	38	652	133.0	778002.0	9259.0	-868011.0
16	16	6	38	652	134.0	-105612.0	8529.0	-867712.0
16	16	6	38	652	135.0	-1329467.0	8766.0	-867709.0
16	16	6	38	652	136.0	-2447427.0	8946.0	-867615.0
16	16	6	38	653	137.0	-3235226.0	8679.0	-867352.0
16	16	6	38	653	139.0	-3414895.0	8530.0	-867283.0
16	16	6	38	653	140.0	-2973416.0	6171.0	-867629.0
16	16	6	38	654	141.0	-2284686.0	4416.0	-867429.0
16	16	6	38	654	142.0	-1334190.0	3741.0	-867812.0
16	16	6	38	654	143.0	-229102.0	3099.0	-867647.0
16	16	6	38	655	144.0	796626.0	2800.0	-867976.0
16	16	6	38	677	145.0	1495575.0	2709.0	-867961.0
16	16	6	38	699	146.0	1762831.0	3476.0	-868007.0
16	16	6	38	700	147.0	1644222.0	6073.0	-867984.0
16	16	6	38	700	148.0	1258083.0	6798.0	-867736.0
16	16	6	38	701	149.0	703512.0	7298.0	-867992.0
16	16	6	38	701	150.0	5581.0	7740.0	-867572.0
16	16	6	38	701	151.0	-829656.0	8261.0	-867853.0
16	16	6	38	702	152.0	-1650892.0	8494.0	-867325.0
16	16	6	38	702	153.0	-2279636.0	9107.0	-867552.0
16	16	6	38	702	154.0	-2655705.0	9112.0	-867316.0
16	16	6	38	703	155.0	-2770647.0	8898.0	-867601.0
16	16	6	38	703	156.0	-2613181.0	8918.0	-867271.0
16	16	6	38	703	157.0	-2249107.0	9351.0	-867660.0
16	16	6	38	704	158.0	-1818238.0	9449.0	-867429.0
16	16	6	38	704	159.0	-1419086.0	9156.0	-867557.0
16	16	6	38	704	161.0	-749233.0	9019.0	-867552.0
16	16	6	38	704	162.0	-477024.0	7471.0	-867659.0
16	16	6	38	705	163.0	-236601.0	5645.0	-867486.0
16	16	6	38	705	164.0	-45367.0	4971.0	-867817.0
16	16	6	38	706	165.0	73081.0	4273.0	-867476.0
16	16	6	38	706	166.0	84928.0	3838.0	-867648.0
16	16	6	38	723	167.0	-9329.0	3306.0	-867332.0
16	16	6	38	744	168.0	-165611.0	3416.0	-867411.0
16	16	6	38	744	169.0	-347634.0	4624.0	-867206.0
16	16	6	38	745	170.0	-508044.0	6204.0	-867189.0
16	16	6	38	745	171.0	-618430.0	6953.0	-867186.0
16	16	6	38	746	172.0	-670609.0	6704.0	-867079.0
16	16	6	38	746	173.0	-653491.0	7059.0	-867170.0
16	16	6	38	747	174.0	-560325.0	7396.0	-866946.0
16	16	6	38	747	175.0	-433439.0	7741.0	-867355.0
16	16	6	38	747	176.0	-316096.0	7579.0	-867222.0
16	16	6	38	769	177.0	-223126.0	7374.0	-867374.0
16	16	6	38	784	178.0	-167459.0	7448.0	-867055.0
16	16	6	38	785	179.0	-140145.0	7412.0	-867438.0
16	16	6	38	785	180.0	-153401.0	7826.0	-867006.0
16	16	6	38	785	181.0	-214426.0	8079.0	-867113.0
16	16	6	38	786	184.0	-385088.0	8038.0	-866762.0
16	16	6	38	786	185.0	-434007.0	5927.0	-866805.0
16	16	6	38	786	186.0	-480861.0	4729.0	-866947.0
16	16	6	38	787	187.0	-518253.0	4405.0	-866687.0
16	16	6	38	787	188.0	-535259.0	5486.0	-866819.0
16	16	6	38	787	189.0	-543880.0	6465.0	-866527.0
16	16	6	38	788	190.0	-545596.0	6486.0	-866894.0
16	16	6	38	788	191.0	-529607.0	7046.0	-866559.0
16	16	6	38	788	192.0	-464899.0	7296.0	-866824.0
16	16	6	38	788	193.0	-352580.0	7648.0	-866573.0
16	16	6	38	789	206.0	790369.0	8563.0	-866537.0
16	16	6	38	789	207.0	794063.0	7156.0	-866612.0
16	16	6	38	789	208.0	782411.0	5603.0	-866654.0
16	16	6	38	790	209.0	764233.0	5422.0	-866452.0
16	16	6	38	790	210.0	722287.0	5806.0	-866689.0
16	16	6	38	790	211.0	641725.0	6521.0	-866326.0
16	16	6	38	815	212.0	528353.0	6819.0	-866601.0
16	16	6	38	833	213.0	394226.0	7559.0	-866247.0
16	16	6	38	834	214.0	245938.0	10391.0	-866508.0
16	16	6	38	834	215.0	116719.0	13019.0	-866257.0
16	16	6	38	834	216.0	11091.0	16128.0	-866592.0
16	16	6	38	835	217.0	-74925.0	19015.0	-866599.0
16	16	6	38	835	218.0	-135631.0	21193.0	-866428.0
16	16	6	38	836	219.0	-153285.0	23852.0	-866590.0
16	16	6	38	836	220.0	-135880.0	26716.0	-866427.0
16	16	6	38	837	221.0	-112181.0	29186.0	-866587.0
16	16	6	38	837	222.0	-86774.0	31805.0	-866201.0
16	16	6	38	837	223.0	-66504.0	34689.0	-866404.0
16	16	6	38	837	224.0	-64932.0	37967.0	-866006.0
16	16	6	38	838	225.0	-92657.0	40984.0	-866329.0
16	16	6	38	838	226.0	-143520.0	43989.0	-865942.0
16	16	6	38	838	228.0	-258129.0	49410.0	-865976.0
16	16	6	38	839	229.0	-294841.0	51593.0	-865987.0
16	16	6	38	839	230.0	-321482.0	51758.0	-866052.0
16	16	6	38	839	231.0	-336977.0	52830.0	-865888.0
16	16	6	38	840	232.0	-326021.0	54690.0	-866145.0
16	16	6	38	840	233.0	-299396.0	56489.0	-865823.0
16	16	6	38	840	234.0	-267884.0	57866.0	-866063.0
16	16	6	38	858	235.0	-230609.0	59591.0	-865811.0
16	16	6	38	875	236.0	-186258.0	61256.0	-866182.0
16	16	6	38	876	237.0	-158851.0	64771.0	-865964.0
16	16	6	38	876	238.0	-119784.0	67346.0	-866106.0
16	16	6	38	876	239.0	-87438.0	68598.0	-866017.0
16	16	6	38	877	240.0	-61135.0	70176.0	-865972.0
16	16	6	38	877	241.0	-12086.0	70388.0	-866136.0
16	16	6	38	877	242.0	8170.0	71214.0	-865839.0
16	16	6	38	878	243.0	6754.0	71877.0	-866079.0
16	16	6	38	878	244.0	11692.0	71973.0	-865959.0
16	16	6	38	878	245.0	6819.0	71795.0	-866294.0
16	16	6	38	878	246.0	772.0	71444.0	-865897.0
16	16	6	38	879	247.0	3200.0	70923.0	-866046.0
16	16	6	38	879	248.0	516.0	70529.0	-865641.0
16	16	6	38	879	249.0	5295.0	69724.0	-865952.0
16	16	6	38	879	251.0	39069.0	67472.0	-865904.0
16	16	6	38	880	252.0	23151.0	64850.0	-865718.0
16	16	6	38	880	253.0	-4263.0	61859.0	-865758.0
16	16	6	38	880	254.0	-48327.0	59753.0	-865686.0
16	16	6	38	880	255.0	-99507.0	57478.0	-865627.0
16	16	6	38	880	0.0	-126180.0	55063.0	-865818.0
16	16	6	38	904	1.0	-120077.0	52752.0	-865498.0
16	16	6	38	916	2.0	-70706.0	50988.0	-865607.0
16	16	6	38	916	3.0	10812.0	50470.0	-865242.0
16	16	6	38	916	4.0	102493.0	49459.0	-865559.0
16	16	6	38	917	5.0	209023.0	47631.0	-865261.0
16	16	6	38	917	6.0	332938.0	45859.0	-865595.0
16	16	6	38	917	7.0	456381.0	43889.0	-865442.0
16	16	6	38	918	8.0	562935.0	41581.0	-865613.0
16	16	6	38	918	9.0	667281.0	39132.0	-865687.0
16	16	6	38	918	10.0	753766.0	36948.0	-865432.0
16	16	6	38	919	11.0	818525.0	34973.0	-865672.0
16	16	6	38	919	12.0	872246.0	32485.0	-865702.0
16	16	6	38	919	13.0	925203.0	29978.0	-865818.0
16	16	6	38	920	14.0	963141.0	27254.0	-865646.0
16	16	6	38	920	15.0	999622.0	24769.0	-865830.0
16	16	6	38	920	17.0	1045313.0	20284.0	-865885.0
16	16	6	38	920	18.0	1036191.0	16986.0	-865541.0
16	16	6	38	921	19.0	990492.0	12689.0	-865653.0
16	16	6	38	921	20.0	905148.0	9043.0	-865346.0
16	16	6	38	921	21.0	785168.0	5977.0	-865397.0
16	16	6	38	922	22.0	553368.0	3721.0	-865314.0
16	16	6	38	934	23.0	99981.0	1143.0	-865294.0
16	16	6	38	952	24.0	-503290.0	-1404.0	-865462.0
16	16	6	38	953	25.0	-798923.0	-3198.0	-865324.0
16	16	6	38	953	26.0	-605994.0	-3544.0	-865731.0
16	16	6	38	954	27.0	-99017.0	-3656.0	-865489.0
16	16	6	38	954	28.0	504915.0	-4131.0	-865961.0
16	16	6	38	954	29.0	898383.0	-5114.0	-865636.0
16	16	6	38	955	30.0	1141298.0	-6272.0	-865979.0
16	16	6	38	970	31.0	1247703.0	-7512.0	-865709.0
16	16	6	38	971	32.0	1179702.0	-8644.0	-865804.0
16	16	6	38	971	33.0	1127863.0	-8983.0	-865914.0
16	16	6	38	971	34.0	1016231.0	-9484.0	-866109.0
16	16	6	38	972	35.0	735448.0	-11214.0	-865855.0
16	16	6	38	972	36.0	378681.0	-12856.0	-865774.0
16	16	6	38	972	37.0	-51106.0	-13958.0	-865819.0
16	16	6	38	972	38.0	-525680.0	-14861.0	-865634.0
16	16	6	38	973	40.0	-987968.0	-17227.0	-865549.0
16	16	6	38	973	41.0	-977733.0	-19463.0	-865896.0
16	16	6	38	973	42.0	-803202.0	-21544.0	-865556.0
16	16	6	38	974	43.0	-483359.0	-22974.0	-865826.0
16	16	6	38	974	44.0	-174644.0	-24582.0	-865644.0
16	16	6	38	974	45.0	10381.0	-25178.0	-865915.0
16	16	6	38	992	46.0	59264.0	-25916.0	-865891.0
16	16	6	39	6	47.0	14711.0	-26337.0	-865822.0
16	16	6	39	7	48.0	-39134.0	-25659.0	-865859.0
16	16	6	39	7	49.0	-84671.0	-24075.0	-865689.0
16	16	6	39	8	50.0	-89614.0	-23046.0	-865972.0
16	16	6	39	8	51.0	-40901.0	-22747.0	-865553.0
16	16	6	39	8	52.0	26953.0	-22420.0	-865886.0
16	16	6	39	8	53.0	107466.0	-22283.0	-865472.0
16	16	6	39	9	54.0	187041.0	-21540.0	-865986.0
16	16	6	39	9	55.0	225721.0	-21417.0	-865839.0
16	16	6	39	9	56.0	215993.0	-21489.0	-866131.0
16	16	6	39	10	57.0	164801.0	-21347.0	-866140.0
16	16	6	39	10	58.0	77766.0	-20894.0	-866099.0
16	16	6	39	10	59.0	-33216.0	-21018.0	-866289.0
16	16	6	39	10	60.0	-139651.0	-20708.0	-866104.0
16	16	6	39	11	62.0	-258088.0	-21284.0	-865983.0
16	16	6	39	24	63.0	-275709.0	-22571.0	-866172.0
16	16	6	39	25	64.0	-272730.0	-25142.0	-865901.0
16	16	6	39	25	65.0	-238317.0	-25916.0	-866039.0
16	16	6	39	26	66.0	-190793.0	-26393.0	-865721.0
16	16	6	39	26	67.0	-161858.0	-27784.0	-865837.0
16	16	6	39	26	68.0	-175787.0	-28306.0	-865942.0
16	16	6	39	42	69.0	-211106.0	-28566.0	-865837.0
16	16	6	39	43	70.0	-245238.0	-28041.0	-866181.0
16	16	6	39	44	71.0	-268586.0	-25748.0	-865817.0
16	16	6	39	44	72.0	-270347.0	-25070.0	-866175.0
16	16	6	39	45	73.0	-274726.0	-25332.0	-865760.0
16	16	6	39	45	74.0	-271158.0	-25018.0	-866186.0
16	16	6	39	45	75.0	-254451.0	-24384.0	-865964.0
16	16	6	39	46	76.0	-257725.0	-24034.0	-866317.0
16	16	6	39	46	77.0	-265489.0	-24220.0	-866166.0
16	16	6	39	46	78.0	-248892.0	-24606.0	-866397.0
16	16	6	39	47	79.0	-253686.0	-24850.0	-866045.0
16	16	6	39	48	80.0	-251792.0	-25131.0	-866319.0
16	16	6	39	48	81.0	-249490.0	-25257.0	-866271.0
16	16	6	39	49	82.0	-262542.0	-24580.0	-866265.0
16	16	6	39	49	83.0	-288886.0	-24937.0	-866284.0
16	16	6	39	49	85.0	-397201.0	-25052.0	-866462.0
16	16	6	39	50	86.0	-472158.0	-26531.0	-866160.0
16	16	6	39	60	87.0	-536452.0	-27922.0	-866484.0
16	16	6	39	60	88.0	-596511.0	-28436.0	-866157.0
16	16	6	39	61	89.0	-642243.0	-28780.0	-866292.0
16	16	6	39	61	90.0	-677107.0	-29108.0	-866164.0
16	16	6	39	83	91.0	-700870.0	-29029.0	-866309.0
16	16	6	39	83	92.0	-716434.0	-28677.0	-866356.0
16	16	6	39	83	93.0	-705536.0	-26490.0	-866392.0
16	16	6	39	99	94.0	-681884.0	-25264.0	-866654.0
16	16	6	39	99	95.0	-652947.0	-25026.0	-866316.0
16	16	6	39	99	96.0	-609754.0	-24271.0	-866662.0
16	16	6	39	99	97.0	-551820.0	-23366.0	-866294.0
16	16	6	39	100	98.0	-504827.0	-23133.0	-866641.0
16	16	6	39	100	99.0	-473737.0	-22241.0	-866149.0
16	16	6	39	100	100.0	-464152.0	-21153.0	-866309.0
16	16	6	39	100	101.0	-477941.0	-20919.0	-866049.0
16	16	6	39	101	102.0	-463841.0	-20488.0	-866029.0
16	16	6	39	101	103.0	-445212.0	-20469.0	-865921.0
16	16	6	39	101	104.0	-406840.0	-20119.0	-865828.0
16	16	6	39	101	105.0	-355118.0	-19888.0	-865967.0
16	16	6	39	101	107.0	-248663.0	-18880.0	-866169.0
16	16	6	39	102	108.0	-163651.0	-18840.0	-865919.0
16	16	6	39	102	109.0	-92411.0	-20719.0	-866347.0
16	16	6	39	102	110.0	-14876.0	-21359.0	-866161.0
16	16	6	39	102	111.0	78280.0	-21357.0	-866439.0
16	16	6	39	103	112.0	168482.0	-21394.0	-866323.0
16	16	6	39	128	113.0	263828.0	-21856.0	-866317.0
16	16	6	39	151	114.0	359394.0	-21479.0	-866419.0
16	16	6	39	151	115.0	443738.0	-20657.0	-866158.0
16	16	6	39	151	116.0	523592.0	-18427.0	-866570.0
16	16	6	39	152	117.0	594049.0	-16687.0	-866142.0
16	16	6	39	152	118.0	656735.0	-15276.0	-866286.0
16	16	6	39	153	119.0	721163.0	-14287.0	-866067.0
16	16	6	39	153	120.0	785903.0	-13280.0	-866443.0
16	16	6	39	153	121.0	828476.0	-12551.0	-866028.0
16	16	6	39	154	122.0	853801.0	-11988.0	-866326.0
16	16	6	39	154	123.0	877969.0	-11461.0	-866095.0
16	16	6	39	154	124.0	919345.0	-10839.0	-866480.0
16	16	6	39	155	125.0	972803.0	-10214.0	-866236.0
16	16	6	39	155	126.0	1010217.0	-9943.0	-866268.0
16	16	6	39	156	127.0	1038806.0	-9702.0	-866076.0
16	16	6	39	156	128.0	1071176.0	-9493.0	-866006.0
16	16	6	39	156	130.0	1120701.0	-9282.0	-866016.0
16	16	6	39	178	131.0	1127705.0	-10806.0	-866229.0
16	16	6	39	178	132.0	1118644.0	-12142.0	-865910.0
16	16	6	39	179	133.0	1101259.0	-12936.0	-866202.0
16	16	6	39	179	134.0	1086898.0	-13546.0	-865930.0
16	16	6	39	180	135.0	1073229.0	-13651.0	-866306.0
16	16	6	39	180	136.0	1057029.0	-13162.0	-866169.0
16	16	6	39	203	137.0	1036819.0	-11018.0	-866257.0
16	16	6	39	203	138.0	1018346.0	-9639.0	-866209.0
16	16	6	39	203	139.0	997195.0	-8774.0	-866049.0
16	16	6	39	204	140.0	965099.0	-8396.0	-866189.0
16	16	6	39	204	141.0	937339.0	-8353.0	-865915.0
16	16	6	39	204	142.0	899094.0	-8440.0	-866166.0
16	16	6	39	205	143.0	803203.0	-8306.0	-866086.0
16	16	6	39	205	144.0	684748.0	-7592.0	-866459.0
16	16	6	39	205	145.0	562849.0	-7394.0	-866219.0
16	16	6	39	205	152.0	-184147.0	-8114.0	-866389.0
16	16	6	39	206	153.0	-271221.0	-9112.0	-866429.0
16	16	6	39	206	154.0	-355579.0	-11494.0	-866192.0
16	16	6	39	206	155.0	-428756.0	-12406.0	-866533.0
16	16	6	39	206	156.0	-491457.0	-13459.0	-866179.0
16	16	6	39	207	157.0	-535326.0	-13924.0	-866495.0
16	16	6	39	207	158.0	-558024.0	-13776.0	-866197.0
16	16	6	39	222	159.0	-561597.0	-14141.0	-866556.0
16	16	6	39	223	160.0	-561811.0	-14077.0	-866406.0
16	16	6	39	223	161.0	-544919.0	-12409.0	-866480.0
16	16	6	39	223	162.0	-510479.0	-11549.0	-866319.0
16	16	6	39	223	163.0	-466014.0	-11212.0	-866015.0
16	16	6	39	224	164.0	-381578.0	-10872.0	-866073.0
16	16	6	39	224	165.0	-276472.0	-10621.0	-866174.0
16	16	6	39	224	166.0	-192754.0	-10691.0	-866250.0
16	16	6	39	224	167.0	-125556.0	-9794.0	-866096.0
16	16	6	39	240	168.0	-55540.0	-9300.0	-866402.0
16	16	6	39	240	169.0	2860.0	-9599.0	-866051.0
16	16	6	39	241	170.0	27541.0	-9643.0	-866386.0
16	16	6	39	241	171.0	22339.0	-9821.0	-866169.0
16	16	6	39	241	172.0	-15288.0	-9584.0	-866427.0
16	16	6	39	241	173.0	-87216.0	-9295.0	-866102.0
16	16	6	39	242	175.0	-278422.0	-9619.0	-865994.0
16	16	6	39	242	176.0	-401514.0	-11252.0	-865928.0
16	16	6	39	242	177.0	-535732.0	-12778.0	-865940.0
16	16	6	39	242	178.0	-663496.0	-13093.0	-865762.0
16	16	6	39	243	179.0	-763294.0	-13426.0	-865826.0
16	16	6	39	243	180.0	-840238.0	-14001.0	-865432.0
16	16	6	39	263	181.0	-898875.0	-13981.0	-865781.0
16	16	6	39	283	182.0	-931217.0	-13501.0	-865457.0
16	16	6	39	283	183.0	-928804.0	-11517.0	-865713.0
16	16	6	39	283	184.0	-912651.0	-10147.0	-865371.0
16	16	6	39	283	185.0	-873586.0	-9154.0	-865566.0
16	16	6	39	284	186.0	-819549.0	-8677.0	-865559.0
16	16	6	39	284	187.0	-750404.0	-8217.0	-865639.0
16	16	6	39	284	188.0	-653679.0	-7856.0	-865882.0
16	16	6	39	284	189.0	-544356.0	-6894.0	-865702.0
16	16	6	39	285	190.0	-414854.0	-6801.0	-865960.0
16	16	6	39	285	191.0	-279149.0	-6558.0	-865688.0
16	16	6	39	285	192.0	-147721.0	-6639.0	-866093.0
16	16	6	39	285	193.0	-22636.0	-5882.0	-865737.0
16	16	6	39	286	194.0	87939.0	-5498.0	-865875.0
16	16	6	39	286	195.0	187735.0	-5112.0	-865447.0
16	16	6	39	286	197.0	335109.0	-4547.0	-865479.0
16	16	6	39	287	198.0	390665.0	-5535.0	-865611.0
16	16	6	39	287	199.0	435935.0	-6827.0	-865904.0
16	16	6	39	287	200.0	467926.0	-7328.0	-865731.0
16	16	6	39	287	201.0	492274.0	-7928.0	-866133.0
16	16	6	39	287	202.0	515914.0	-8132.0	-865837.0
16	16	6	39	288	203.0	538810.0	-8306.0	-866186.0
16	16	6	39	309	204.0	554375.0	-8383.0	-865914.0
16	16	6	39	320	205.0	568337.0	-7047.0	-866346.0
16	16	6	39	320	206.0	578576.0	-4793.0	-866132.0
16	16	6	39	320	207.0	592274.0	-3741.0	-866422.0
16	16	6	39	321	208.0	591395.0	-3112.0	-866458.0
16	16	6	39	321	209.0	563423.0	-2547.0	-866317.0
16	16	6	39	321	210.0	534821.0	-1981.0	-866323.0
16	16	6	39	322	211.0	489256.0	-1262.0	-866183.0
16	16	6	39	322	212.0	425059.0	-900.0	-866229.0
16	16	6	39	322	213.0	339721.0	-614.0	-866078.0
16	16	6	39	322	214.0	231353.0	-537.0	-866376.0
16	16	6	39	322	215.0	122208.0	-99.0	-866086.0
16	16	6	39	323	216.0	10608.0	301.0	-866454.0
16	16	6	39	323	217.0	-78659.0	741.0	-866130.0
16	16	6	39	323	218.0	-151446.0	1164.0	-866391.0
16	16	6	39	323	220.0	-307786.0	901.0	-866255.0
16	16	6	39	324	221.0	-368052.0	-929.0	-866050.0
16	16	6	39	338	222.0	-400704.0	-2045.0	-866162.0
16	16	6	39	338	223.0	-414861.0	-2298.0	-866186.0
16	16	6	39	338	224.0	-401648.0	-2639.0	-866030.0
16	16	6	39	339	225.0	-387736.0	-3084.0	-866169.0
16	16	6	39	356	226.0	-385453.0	-3059.0	-865939.0
16	16	6	39	356	227.0	-393746.0	-2201.0	-866365.0
16	16	6	39	357	228.0	-403267.0	-21.0	-865956.0
16	16	6	39	357	229.0	-412498.0	1111.0	-866223.0
16	16	6	39	357	230.0	-391777.0	1841.0	-865869.0
16	16	6	39	357	231.0	-357777.0	2578.0	-865966.0
16	16	6	39	357	232.0	-336322.0	3749.0	-865956.0
16	16	6	39	358	233.0	-318238.0	4168.0	-866304.0
16	16	6	39	374	234.0	-301364.0	4889.0	-866122.0
16	16	6	39	374	235.0	-285830.0	4880.0	-866377.0
16	16	6	39	375	236.0	-277079.0	5364.0	-866300.0
16	16	6	39	375	237.0	-271035.0	5798.0	-866213.0
16	16	6	39	375	238.0	-259461.0	5763.0	-866288.0
16	16	6	39	376	239.0	-235872.0	6117.0	-866087.0
16	16	6	39	376	240.0	-203526.0	5995.0	-866328.0
16	16	6	39	376	242.0	-117909.0	6360.0	-866432.0
16	16	6	39	376	243.0	-81629.0	5614.0	-866121.0
16	16	6	39	377	244.0	-48546.0	3889.0	-866393.0
16	16	6	39	377	245.0	-22769.0	2904.0	-866316.0
16	16	6	39	377	246.0	-9384.0	2906.0	-866400.0
16	16	6	39	377	247.0	431.0	2956.0	-866477.0
16	16	6	39	378	248.0	-5394.0	2468.0	-866362.0
16	16	6	39	399	249.0	-18639.0	1659.0	-866617.0
16	16	6	39	416	250.0	-35991.0	2293.0	-866314.0
16	16	6	39	417	251.0	-59539.0	4579.0	-866563.0
16	16	6	39	417	252.0	-79337.0	5717.0	-866123.0
16	16	6	39	417	253.0	-86110.0	6935.0	-866476.0
16	16	6	39	418	254.0	-75080.0	7329.0	-866110.0
16	16	6	39	418	255.0	-55777.0	7767.0	-866422.0
16	16	6	39	418	0.0	-34647.0	8064.0	-866125.0
16	16	6	39	418	1.0	-11191.0	8352.0	-866202.0
16	16	6	39	419	2.0	19837.0	8549.0	-865972.0
16	16	6	39	419	3.0	60226.0	8950.0	-865910.0
16	16	6	39	419	4.0	116473.0	8824.0	-866059.0
16	16	6	39	419	5.0	174729.0	8747.0	-865932.0
16	16	6	39	420	6.0	237625.0	9179.0	-866373.0
16	16	6	39	420	7.0	318821.0	9064.0	-866015.0
16	16	6	39	420	9.0	505458.0	8939.0	-865831.0
16	16	6	39	421	10.0	597018.0	6608.0	-866039.0
16	16	6	39	421	11.0	681260.0	5141.0	-865915.0
16	16	6	39	421	12.0	749332.0	4514.0	-865969.0
16	16	6	39	421	13.0	795888.0	4084.0	-865942.0
16	16	6	39	422	14.0	816289.0	3802.0	-865897.0
16	16	6	39	443	15.0	820140.0	3318.0	-866072.0
16	16	6	39	454	16.0	797719.0	3841.0	-865757.0
16	16	6	39	454	17.0	752903.0	5878.0	-865956.0
16	16	6	39	454	18.0	693835.0	6709.0	-865571.0
16	16	6	39	455	19.0	634081.0	7634.0	-865952.0
16	16	6	39	455	20.0	591294.0	8116.0	-865437.0
16	16	6	39	488	21.0	579148.0	8433.0	-865523.0
16	16	6	39	500	22.0	602549.0	8809.0	-865419.0
16	16	6	39	501	23.0	665576.0	9418.0	-865841.0
16	16	6	39	501	24.0	759811.0	9441.0	-865515.0
16	16	6	39	501	25.0	867563.0	9418.0	-865856.0
16	16	6	39	502	26.0	990646.0	9664.0	-865884.0
16	16	6	39	502	27.0	1120211.0	9891.0	-865966.0
16	16	6	39	502	28.0	1243954.0	10173.0	-865942.0
16	16	6	39	502	29.0	1350828.0	10266.0	-865895.0
16	16	6	39	503	31.0	1496374.0	10615.0	-865954.0
16	16	6	39	503	32.0	1532329.0	9013.0	-866399.0
16	16	6	39	503	33.0	1523142.0	6928.0	-866147.0
16	16	6	39	504	34.0	1464838.0	7644.0	-866479.0
16	16	6	39	504	35.0	1324586.0	9328.0	-866221.0
16	16	6	39	504	36.0	1154113.0	9514.0	-866242.0
16	16	6	39	504	54.0	1304919.0	9982.0	-866537.0
16	16	6	39	505	55.0	441507.0	7551.0	-866142.0
16	16	6	39	524	56.0	-391563.0	6084.0	-866236.0
16	16	6	39	525	57.0	-1041195.0	4976.0	-865906.0
16	16	6	39	525	58.0	-1464771.0	4043.0	-865887.0
16	16	6	39	526	59.0	-1640817.0	3483.0	-865769.0
16	16	6	39	548	60.0	-1540143.0	2910.0	-865897.0
16	16	6	39	548	61.0	-1210263.0	3373.0	-866031.0
16	16	6	39	549	62.0	-750564.0	5780.0	-865959.0
16	16	6	39	549	63.0	-291101.0	6459.0	-866290.0
16	16	6	39	549	64.0	64916.0	6864.0	-865849.0
16	16	6	39	549	65.0	305654.0	7486.0	-866071.0
16	16	6	39	550	66.0	455709.0	8113.0	-865933.0
16	16	6	39	550	67.0	543131.0	8250.0	-866309.0
16	16	6	39	550	68.0	576029.0	8708.0	-865832.0
16	16	6	39	550	69.0	552279.0	9106.0	-866171.0
16	16	6	39	550	70.0	483381.0	9277.0	-865859.0
16	16	6	39	551	71.0	369139.0	9003.0	-866059.0
16	16	6	39	551	72.0	221296.0	8814.0	-865860.0
16	16	6	39	551	73.0	73526.0	8921.0	-865861.0
16	16	6	39	551	74.0	-49672.0	9469.0	-865753.0
16	16	6	39	552	76.0	-184613.0	9236.0	-865888.0
16	16	6	39	552	77.0	-221737.0	7944.0	-865695.0
16	16	6	39	552	78.0	-232187.0	5996.0	-865942.0
16	16	6	39	552	79.0	-227416.0	4961.0	-865605.0
16	16	6	39	553	80.0	-206356.0	4393.0	-865979.0
16	16	6	39	553	81.0	-180006.0	3381.0	-865704.0
16	16	6	39	578	82.0	-173623.0	3216.0	-865749.0
16	16	6	39	587	83.0	-190841.0	3448.0	-865494.0
16	16	6	39	587	84.0	-244837.0	4341.0	-865449.0
16	16	6	39	588	85.0	-317376.0	5757.0	-865426.0
16	16	6	39	588	86.0	-402363.0	6402.0	-865242.0
16	16	6	39	588	87.0	-507980.0	6708.0	-865547.0
16	16	6	39	589	88.0	-628105.0	7241.0	-865236.0
16	16	6	39	589	89.0	-742169.0	7761.0	-865773.0
16	16	6	39	589	90.0	-838259.0	7623.0	-865414.0
16	16	6	39	589	91.0	-910717.0	7844.0	-865920.0
16	16	6	39	589	92.0	-943799.0	7767.0	-865638.0
16	16	6	39	607	93.0	-937479.0	8188.0	-865943.0
16	16	6	39	607	94.0	-901772.0	8181.0	-865751.0
16	16	6	39	607	95.0	-841560.0	7964.0	-865811.0
16	16	6	39	608	96.0	-766186.0	7704.0	-865806.0
16	16	6	39	608	98.0	-650824.0	7646.0	-865865.0
16	16	6	39	608	99.0	-603409.0	7166.0	-865584.0
16	16	6	39	608	100.0	-546235.0	5253.0	-865822.0
16	16	6	39	609	101.0	-480549.0	4588.0	-865526.0
16	16	6	39	609	102.0	-417021.0	4147.0	-865829.0
16	16	6	39	609	103.0	-363512.0	3129.0	-865582.0
16	16	6	39	609	104.0	-322737.0	2737.0	-865691.0
16	16	6	39	627	105.0	-285031.0	2882.0	-865672.0
16	16	6	39	628	106.0	-259273.0	3443.0	-865627.0
16	16	6	39	628	107.0	-232944.0	5503.0	-865826.0
16	16	6	39	628	108.0	-199999.0	6591.0	-865525.0
16	16	6	39	628	109.0	-182249.0	7327.0	-865669.0
16	16	6	39	629	110.0	-164234.0	8323.0	-865669.0
16	16	6	39	629	111.0	-148180.0	8569.0	-865831.0
16	16	6	39	629	112.0	-123757.0	9013.0	-865535.0
16	16	6	39	647	113.0	-88419.0	9631.0	-865906.0
16	16	6	39	648	114.0	-67237.0	9821.0	-865516.0
16	16	6	39	648	115.0	-69247.0	10223.0	-865734.0
16	16	6	39	648	116.0	-93643.0	10801.0	-865399.0
16	16	6	39	649	117.0	-135891.0	12266.0	-865697.0
16	16	6	39	649	118.0	-177794.0	13253.0	-865534.0
16	16	6	39	649	119.0	-220761.0	13872.0	-865736.0
16	16	6	39	649	121.0	-339911.0	16055.0	-865514.0
16	16	6	39	650	122.0	-399594.0	15830.0	-865800.0
16	16	6	39	650	123.0	-452359.0	15988.0	-865565.0
16	16	6	39	650	124.0	-500212.0	17382.0	-865917.0
16	16	6	39	650	125.0	-548822.0	19100.0	-865563.0
16	16	6	39	651	126.0	-593371.0	20667.0	-865772.0
16	16	6	39	668	127.0	-635940.0	22228.0	-865542.0
16	16	6	39	668	128.0	-687576.0	24704.0	-865868.0
16	16	6	39	688	129.0	-728169.0	29171.0	-865736.0
16	16	6	39	689	130.0	-752785.0	33866.0	-865732.0
16	16	6	39	689	131.0	-752481.0	37693.0	-865816.0
16	16	6	39	689	132.0	-726124.0	41121.0	-865444.0
16	16	6	39	690	133.0	-680538.0	43994.0	-865756.0
16	16	6	39	690	134.0	-621403.0	46638.0	-865704.0
16	16	6	39	690	135.0	-536833.0	49674.0	-865954.0
16	16	6	39	691	136.0	-428451.0	52487.0	-865631.0
16	16	6	39	691	137.0	-310837.0	55422.0	-865917.0
16	16	6	39	691	138.0	-210656.0	58343.0	-865517.0
16	16	6	39	691	139.0	-128949.0	60426.0	-865884.0
16	16	6	39	692	140.0	-61581.0	62035.0	-865600.0
16	16	6	39	692	141.0	-18312.0	63936.0	-865912.0
16	16	6	39	692	143.0	38477.0	66738.0	-865721.0
16	16	6	39	692	144.0	48988.0	67429.0	-865642.0
16	16	6	39	693	145.0	42198.0	66313.0	-865584.0
16	16	6	39	693	146.0	22868.0	66288.0	-865816.0
16	16	6	39	693	147.0	2323.0	66121.0	-865396.0
16	16	6	39	693	148.0	-26548.0	65994.0	-865672.0
16	16	6	39	693	149.0	-61835.0	65959.0	-865339.0
16	16	6	39	713	150.0	-104722.0	65912.0	-865789.0
16	16	6	39	713	151.0	-146167.0	66221.0	-865561.0
16	16	6	39	733	152.0	-184231.0	67984.0	-865709.0
16	16	6	39	734	153.0	-219524.0	68663.0	-865787.0
16	16	6	39	734	154.0	-266875.0	68460.0	-865672.0
16	16	6	39	734	155.0	-316666.0	68254.0	-865957.0
16	16	6	39	735	156.0	-359921.0	67363.0	-866009.0
16	16	6	39	735	157.0	-387963.0	66679.0	-865921.0
16	16	6	39	735	158.0	-406374.0	65464.0	-865762.0
16	16	6	39	736	159.0	-412941.0	64608.0	-865842.0
16	16	6	39	736	160.0	-408864.0	63725.0	-865627.0
16	16	6	39	736	161.0	-388075.0	62166.0	-866022.0
16	16	6	39	736	162.0	-347546.0	60482.0	-865736.0
16	16	6	39	737	163.0	-294617.0	58589.0	-866077.0
16	16	6	39	737	164.0	-219342.0	56699.0	-865829.0
16	16	6	39	737	166.0	2556.0	52394.0	-865931.0
16	16	6	39	737	167.0	133574.0	48180.0	-865848.0
16	16	6	39	737	168.0	262554.0	44246.0	-865985.0
16	16	6	39	738	169.0	377594.0	41273.0	-865804.0
16	16	6	39	738	170.0	469123.0	38490.0	-866114.0
16	16	6	39	738	171.0	531561.0	35738.0	-865799.0
16	16	6	39	759	172.0	575579.0	33218.0	-866262.0
16	16	6	39	778	173.0	597423.0	30284.0	-865925.0
16	16	6	39	778	174.0	593241.0	29746.0	-866414.0
16	16	6	39	779	175.0	574005.0	28634.0	-866151.0
16	16	6	39	779	176.0	533527.0	26592.0	-866336.0
16	16	6	39	779	177.0	452323.0	24398.0	-866232.0
16	16	6	39	780	178.0	327381.0	22294.0	-866271.0
16	16	6	39	780	179.0	144364.0	19534.0	-866349.0
16	16	6	39	780	180.0	-111411.0	17920.0	-866002.0
16	16	6	39	780	181.0	-506065.0	15649.0	-866043.0
16	16	6	39	780	182.0	-1051051.0	12923.0	-865652.0
16	16	6	39	781	183.0	-1596716.0	10911.0	-865993.0
16	16	6	39	781	184.0	-1720387.0	9186.0	-865674.0
16	16	6	39	781	185.0	-1397721.0	6693.0	-865815.0
16	16	6	39	781	186.0	-852399.0	3967.0	-865612.0
16	16	6	39	782	188.0	184001.0	467.0	-865649.0
16	16	6	39	782	189.0	585394.0	-2047.0	-865793.0
16	16	6	39	782	190.0	883035.0	-5965.0	-866040.0
16	16	6	39	782	191.0	1012608.0	-8759.0	-865909.0
16	16	6	39	782	192.0	1108538.0	-10871.0	-866187.0
16	16	6	39	783	193.0	1084708.0	-12897.0	-865852.0
16	16	6	39	783	194.0	900614.0	-15049.0	-866284.0
16	16	6	39	802	195.0	681895.0	-16709.0	-865852.0
16	16	6	39	823	196.0	449181.0	-17537.0	-866215.0
16	16	6	39	824	197.0	226192.0	-16795.0	-865992.0
16	16	6	39	824	198.0	62046.0	-16430.0	-866040.0
16	16	6	39	824	199.0	-63404.0	-16686.0	-866092.0
16	16	6	39	825	200.0	-168701.0	-17671.0	-866397.0
16	16	6	39	825	201.0	-282534.0	-17157.0	-866350.0
16	16	6	39	825	202.0	-443386.0	-17391.0	-866262.0
16	16	6	39	826	203.0	-636530.0	-18099.0	-866336.0
16	16	6	39	826	204.0	-866917.0	-18577.0	-866068.0
16	16	6	39	826	205.0	-1142917.0	-19042.0	-866216.0
16	16	6	39	827	206.0	-1399299.0	-19554.0	-865976.0
16	16	6	39	827	207.0	-1482914.0	-20107.0	-866334.0
16	16	6	39	827	208.0	-1372006.0	-20879.0	-866045.0
16	16	6	39	828	209.0	-1108532.0	-21312.0	-866386.0
16	16	6	39	828	211.0	-289384.0	-22324.0	-866189.0
16	16	6	39	828	212.0	111447.0	-24386.0	-866116.0
16	16	6	39	828	213.0	458166.0	-25770.0	-866036.0
16	16	6	39	829	214.0	745582.0	-26686.0	-866342.0
16	16	6	39	829	215.0	985392.0	-27339.0	-866149.0
16	16	6	39	829	216.0	1181560.0	-28153.0	-866652.0
16	16	6	39	874	217.0	1340304.0	-28585.0	-866277.0
16	16	6	39	875	218.0	1469983.0	-28482.0	-866740.0
16	16	6	39	876	219.0	1568622.0	-26364.0	-866476.0
16	16	6	39	877	220.0	1621187.0	-24819.0	-866784.0
16	16	6	39	878	221.0	1631246.0	-24264.0	-866501.0
16	16	6	39	878	222.0	1603442.0	-24594.0	-866664.0
16	16	6	39	879	223.0	1553701.0	-24719.0	-866615.0
16	16	6	39	880	224.0	1498027.0	-24174.0	-866613.0
16	16	6	39	904	225.0	1445211.0	-24094.0	-866789.0
16	16	6	39	905	226.0	1384333.0	-24217.0	-866559.0
16	16	6	39	906	227.0	1321176.0	-24144.0	-866823.0
16	16	6	39	907	228.0	1265219.0	-24004.0	-866451.0
16	16	6	39	908	229.0	1215330.0	-23934.0	-866628.0
16	16	6	39	909	230.0	1187925.0	-24536.0	-866333.0
16	16	6	39	910	231.0	1188937.0	-25011.0	-866432.0
16	16	6	39	911	233.0	1229839.0	-25487.0	-866301.0
16	16	6	39	912	234.0	1255808.0	-26367.0	-866459.0
16	16	6	39	914	235.0	1265381.0	-28317.0	-866389.0
16	16	6	39	916	236.0	1239127.0	-29360.0	-866648.0
16	16	6	39	917	237.0	1165274.0	-28541.0	-866274.0
16	16	6	39	918	238.0	1051286.0	-27347.0	-866656.0
16	16	6	39	919	239.0	894696.0	-26925.0	-866224.0
16	16	6	39	920	240.0	725498.0	-26664.0	-866600.0
16	16	6	39	922	0.0	-1379361.0	-23430.0	-866234.0
16	16	6	39	923	1.0	-1369613.0	-24651.0	-866012.0
16	16	6	39	924	2.0	-1345210.0	-26143.0	-866249.0
16	16	6	39	925	3.0	-1309513.0	-26357.0	-865882.0
16	16	6	39	926	4.0	-1255998.0	-26251.0	-866269.0
16	16	6	39	927	5.0	-1185728.0	-26146.0	-865854.0
16	16	6	39	938	6.0	-1104052.0	-25956.0	-866311.0
16	16	6	39	963	7.0	-1027477.0	-24559.0	-866092.0
16	16	6	39	964	8.0	-960430.0	-22042.0	-866024.0
16	16	6	39	964	9.0	-891446.0	-20785.0	-865884.0
16	16	6	39	964	10.0	-829206.0	-19911.0	-866236.0
16	16	6	39	965	11.0	-764744.0	-18767.0	-866078.0
16	16	6	39	965	12.0	-700189.0	-17742.0	-866250.0
16	16	6	39	965	13.0	-638364.0	-17459.0	-866094.0
16	16	6	39	966	14.0	-580157.0	-16771.0	-866243.0
16	16	6	39	966	15.0	-512142.0	-15865.0	-866487.0
16	16	6	39	967	16.0	-432124.0	-15011.0	-866362.0
16	16	6	39	967	17.0	-354032.0	-14496.0	-866755.0
16	16	6	39	967	18.0	-278300.0	-13989.0	-866464.0
16	16	6	39	967	19.0	-189866.0	-13874.0	-866471.0
16	16	6	39	968	20.0	-86936.0	-13399.0	-866083.0
16	16	6	39	968	22.0	128128.0	-12434.0	-866099.0
16	16	6	39	968	23.0	231914.0	-12767.0	-866154.0
16	16	6	39	968	24.0	334872.0	-14689.0	-866217.0
16	16	6	39	969	25.0	423261.0	-14914.0	-866093.0
16	16	6	39	969	26.0	488691.0	-14828.0	-866371.0
16	16	6	39	969	27.0	539031.0	-15105.0	-866066.0
16	16	6	39	970	28.0	575902.0	-15058.0	-866292.0
16	16	6	39	996	29.0	604716.0	-14396.0	-865851.0
16	16	6	39	997	30.0	617552.0	-13056.0	-866124.0
16	16	6	39	997	31.0	615760.0	-10933.0	-865990.0
16	16	6	39	997	32.0	608520.0	-10167.0	-866484.0
16	16	6	39	998	33.0	595922.0	-9125.0	-866174.0
16	16	6	39	998	34.0	575369.0	-8386.0	-866785.0
16	16	6	39	998	35.0	548443.0	-8127.0	-866416.0
16	16	6	39	999	36.0	532143.0	-7661.0	-866609.0
16	16	6	39	999	37.0	510164.0	-6814.0	-866583.0
16	16	6	39	999	38.0	485238.0	-6247.0	-866499.0
16	16	6	39	999	39.0	460844.0	-6218.0	-866557.0
16	16	6	40	0	40.0	432795.0	-5971.0	-866322.0
16	16	6	40	0	41.0	403123.0	-5852.0	-866479.0
16	16	6	40	0	42.0	374006.0	-5844.0	-866276.0
16	16	6	40	1	43.0	348507.0	-6306.0	-866667.0
16	16	6	40	1	45.0	282290.0	-5712.0	-866779.0
16	16	6	40	1	46.0	242616.0	-7747.0	-866695.0
16	16	6	40	1	47.0	216138.0	-9327.0	-866836.0
16	16	6	40	2	48.0	190487.0	-10597.0	-866838.0
16	16	6	40	2	49.0	153104.0	-11251.0	-866738.0
16	16	6	40	2	50.0	106236.0	-11626.0	-867021.0
16	16	6	40	30	51.0	51172.0	-12126.0	-866522.0
16	16	6	40	30	52.0	829.0	-11909.0	-866759.0
16	16	6	40	30	53.0	-38132.0	-9867.0	-866558.0
16	16	6	40	60	54.0	-63678.0	-9438.0	-866901.0
16	16	6	40	60	55.0	-74376.0	-9213.0	-866510.0
16	16	6	40	61	56.0	-70306.0	-8690.0	-866958.0
16	16	6	40	61	57.0	-46680.0	-7865.0	-866621.0
16	16	6	40	61	58.0	-1605.0	-6837.0	-866876.0
16	16	6	40	62	59.0	73035.0	-6414.0	-866762.0
16	16	6	40	62	60.0	163620.0	-7073.0	-866855.0
16	16	6	40	62	61.0	251483.0	-7314.0	-866802.0
16	16	6	40	63	62.0	338475.0	-7112.0	-866865.0
16	16	6	40	63	63.0	413294.0	-7286.0	-867198.0
16	16	6	40	63	64.0	470262.0	-7236.0	-866956.0
16	16	6	40	63	65.0	502799.0	-7507.0	-867185.0
16	16	6	40	64	67.0	492671.0	-7419.0	-867242.0
16	16	6	40	64	68.0	459986.0	-8172.0	-866952.0
16	16	6	40	64	69.0	421373.0	-10546.0	-867039.0
16	16	6	40	65	70.0	371867.0	-11617.0	-866922.0
16	16	6	40	65	71.0	318548.0	-12396.0	-867002.0
16	16	6	40	65	72.0	266819.0	-12597.0	-867180.0
16	16	6	40	66	73.0	218671.0	-13020.0	-866889.0
16	16	6	40	91	74.0	184511.0	-13581.0	-867141.0
16	16	6	40	92	75.0	159713.0	-12951.0	-867204.0
16	16	6	40	92	76.0	141256.0	-11155.0	-867383.0
16	16	6	40	92	77.0	125129.0	-10401.0	-867158.0
16	16	6	40	93	78.0	116639.0	-9439.0	-867432.0
16	16	6	40	93	79.0	126563.0	-9139.0	-867145.0
16	16	6	40	93	80.0	155639.0	-9109.0	-867441.0
16	16	6	40	93	81.0	179044.0	-8840.0	-867139.0
16	16	6	40	94	82.0	199958.0	-8529.0	-867364.0
16	16	6	40	94	83.0	218339.0	-8492.0	-867054.0
16	16	6	40	94	84.0	234352.0	-8016.0	-866901.0
16	16	6	40	95	85.0	243372.0	-7996.0	-866792.0
16	16	6	40	95	86.0	246444.0	-8050.0	-866754.0
16	16	6	40	95	87.0	240618.0	-7941.0	-866990.0
16	16	6	40	96	88.0	234696.0	-8325.0	-866709.0
16	16	6	40	96	90.0	234047.0	-8204.0	-866749.0
16	16	6	40	96	91.0	236470.0	-10116.0	-867039.0
16	16	6	40	97	92.0	240592.0	-10662.0	-866715.0
16	16	6	40	97	93.0	242961.0	-11036.0	-867059.0
16	16	6	40	97	94.0	239429.0	-11361.0	-866797.0
16	16	6	40	97	95.0	223379.0	-11854.0	-866770.0
16	16	6	40	121	96.0	211859.0	-11450.0	-866737.0
16	16	6	40	122	97.0	200434.0	-10659.0	-867011.0
16	16	6	40	122	98.0	209091.0	-8994.0	-866917.0
16	16	6	40	123	99.0	237326.0	-8171.0	-866800.0
16	16	6	40	123	100.0	281619.0	-7409.0	-866919.0
16	16	6	40	123	101.0	338077.0	-6862.0	-866657.0
16	16	6	40	123	102.0	397258.0	-6276.0	-866863.0
16	16	6	40	124	103.0	456170.0	-5671.0	-866527.0
16	16	6	40	153	104.0	511717.0	-5093.0	-866753.0
16	16	6	40	153	105.0	542054.0	-4807.0	-866355.0
16	16	6	40	154	106.0	557819.0	-5051.0	-866718.0
16	16	6	40	154	107.0	546730.0	-4523.0	-866679.0
16	16	6	40	154	108.0	520683.0	-3949.0	-866832.0
16	16	6	40	155	109.0	469862.0	-3717.0	-866815.0
16	16	6	40	155	110.0	403415.0	-3080.0	-866646.0
16	16	6	40	155	112.0	197719.0	-2624.0	-866339.0
16	16	6	40	156	113.0	87931.0	-3216.0	-866641.0
16	16	6	40	156	114.0	-10736.0	-4967.0	-866237.0
16	16	6	40	156	115.0	-96866.0	-5657.0	-866638.0
16	16	6	40	157	116.0	-176374.0	-6376.0	-866216.0
16	16	6	40	157	117.0	-255159.0	-6853.0	-866312.0
16	16	6	40	208	118.0	-323172.0	-7044.0	-866269.0
16	16	6	40	222	119.0	-385171.0	-7251.0	-866556.0
16	16	6	40	223	120.0	-442352.0	-5650.0	-866293.0
16	16	6	40	223	121.0	-485594.0	-3469.0	-866282.0
16	16	6	40	224	122.0	-522051.0	-2479.0	-866286.0
16	16	6	40	224	123.0	-554653.0	-1802.0	-866314.0
16	16	6	40	224	124.0	-572924.0	-1547.0	-866359.0
16	16	6	40	225	125.0	-583181.0	-971.0	-866192.0
16	16	6	40	225	126.0	-596050.0	326.0	-866328.0
16	16	6	40	225	127.0	-607314.0	856.0	-865979.0
16	16	6	40	226	128.0	-618763.0	1398.0	-866227.0
16	16	6	40	226	129.0	-631824.0	1946.0	-865969.0
16	16	6	40	226	130.0	-636186.0	2143.0	-866266.0
16	16	6	40	227	131.0	-619501.0	1552.0	-866004.0
16	16	6	40	227	132.0	-586317.0	1436.0	-865941.0
16	16	6	40	227	157.0	390191.0	6101.0	-866134.0
16	16	6	40	227	158.0	395641.0	4710.0	-865979.0
16	16	6	40	228	159.0	395419.0	2776.0	-866282.0
16	16	6	40	228	160.0	386383.0	2359.0	-865897.0
16	16	6	40	228	161.0	374860.0	2286.0	-866306.0
16	16	6	40	229	162.0	359196.0	2136.0	-865810.0
16	16	6	40	254	163.0	311651.0	1468.0	-865892.0
16	16	6	40	255	164.0	243857.0	1349.0	-865724.0
16	16	6	40	255	165.0	153114.0	2999.0	-866131.0
16	16	6	40	256	166.0	56066.0	4706.0	-865906.0
16	16	6	40	257	167.0	-30491.0	5366.0	-866149.0
16	16	6	40	258	168.0	-97956.0	5422.0	-866041.0
16	16	6	40	259	169.0	-138789.0	5993.0	-866036.0
16	16	6	40	260	170.0	-145439.0	6518.0	-866080.0
16	16	6	40	260	171.0	-113837.0	6869.0	-865993.0
16	16	6	40	260	172.0	-44212.0	7408.0	-866168.0
16	16	6	40	261	173.0	60193.0	7706.0	-865895.0
16	16	6	40	261	174.0	197175.0	7655.0	-866169.0
16	16	6	40	261	175.0	347919.0	7714.0	-865922.0
16	16	6	40	262	176.0	496161.0	7512.0	-866186.0
16	16	6	40	262	177.0	638645.0	7642.0	-865922.0
16	16	6	40	262	179.0	884728.0	8364.0	-865907.0
16	16	6	40	263	180.0	992726.0	8287.0	-865881.0
16	16	6	40	263	181.0	1085761.0	5619.0	-865998.0
16	16	6	40	263	182.0	1154040.0	4118.0	-865716.0
16	16	6	40	269	183.0	1196433.0	3508.0	-866072.0
16	16	6	40	299	184.0	1206646.0	3029.0	-865638.0
16	16	6	40	299	185.0	1165537.0	2775.0	-866139.0
16	16	6	40	318	186.0	890988.0	2878.0	-865856.0
16	16	6	40	319	187.0	187693.0	4126.0	-866281.0
16	16	6	40	319	188.0	-685569.0	6201.0	-865914.0
16	16	6	40	320	189.0	-1400929.0	6709.0	-866152.0
16	16	6	40	320	190.0	-1849466.0	7233.0	-866077.0
16	16	6	40	320	191.0	-1961031.0	7420.0	-865967.0
16	16	6	40	321	192.0	-1779532.0	8044.0	-866011.0
16	16	6	40	321	193.0	-1410220.0	8138.0	-865819.0
16	16	6	40	321	194.0	-890326.0	8383.0	-866032.0
16	16	6	40	322	195.0	-183084.0	8609.0	-865775.0
16	16	6	40	322	196.0	634753.0	8974.0	-866319.0
16	16	6	40	322	197.0	1361739.0	9621.0	-866167.0
16	16	6	40	322	198.0	1753209.0	10169.0	-866284.0
16	16	6	40	323	202.0	815271.0	9337.0	-865853.0
16	16	6	40	323	203.0	56682.0	7748.0	-866125.0
16	16	6	40	323	204.0	-857959.0	6209.0	-865809.0
16	16	6	40	324	205.0	-1712923.0	5591.0	-866109.0
16	16	6	40	324	206.0	-2330345.0	5103.0	-865595.0
16	16	6	40	324	207.0	-2649604.0	4279.0	-865949.0
16	16	6	40	343	208.0	-2713507.0	3543.0	-865559.0
16	16	6	40	367	209.0	-2573041.0	3339.0	-865841.0
16	16	6	40	367	210.0	-2269597.0	4784.0	-865610.0
16	16	6	40	368	211.0	-1878539.0	6076.0	-865751.0
16	16	6	40	368	212.0	-1497248.0	6601.0	-865811.0
16	16	6	40	368	213.0	-1174022.0	7546.0	-865801.0
16	16	6	40	369	214.0	-880859.0	8181.0	-866084.0
16	16	6	40	369	215.0	-562839.0	8691.0	-865930.0
16	16	6	40	369	216.0	-205047.0	9279.0	-866293.0
16	16	6	40	369	217.0	156273.0	9032.0	-866011.0
16	16	6	40	370	218.0	466043.0	8772.0	-866337.0
16	16	6	40	370	219.0	689234.0	9269.0	-866180.0
16	16	6	40	370	220.0	813703.0	9328.0	-866331.0
16	16	6	40	370	221.0	865026.0	9272.0	-866172.0
16	16	6	40	371	222.0	860826.0	9478.0	-866196.0
16	16	6	40	371	224.0	845658.0	8980.0	-866081.0
16	16	6	40	371	225.0	865131.0	8764.0	-866289.0
16	16	6	40	371	226.0	918140.0	6766.0	-865904.0
16	16	6	40	372	227.0	1017607.0	5618.0	-866236.0
16	16	6	40	372	228.0	1155911.0	4869.0	-865775.0
16	16	6	40	372	229.0	1310505.0	4416.0	-866169.0
16	16	6	40	373	230.0	1471046.0	4150.0	-865988.0
16	16	6	40	388	231.0	1606018.0	4117.0	-866299.0
16	16	6	40	389	232.0	1714744.0	4066.0	-866172.0
16	16	6	40	389	233.0	1782759.0	6149.0	-866151.0
16	16	6	40	390	234.0	1813088.0	7334.0	-866217.0
16	16	6	40	420	235.0	1817448.0	7998.0	-866187.0
16	16	6	40	420	236.0	1793985.0	8371.0	-866388.0
16	16	6	40	421	237.0	1746259.0	8863.0	-866133.0
16	16	6	40	421	238.0	1688737.0	9138.0	-866371.0
16	16	6	40	421	239.0	1641554.0	9213.0	-866078.0
16	16	6	40	421	240.0	1609929.0	9047.0	-866384.0
16	16	6	40	422	241.0	1571138.0	8423.0	-866102.0
16	16	6	40	422	242.0	1509308.0	8694.0	-866202.0
16	16	6	40	422	243.0	1424140.0	9280.0	-865981.0
16	16	6	40	423	244.0	1329656.0	9263.0	-866023.0
16	16	6	40	423	245.0	1234421.0	9060.0	-866369.0
16	16	6	40	423	247.0	1079178.0	8475.0	-866385.0
16	16	6	40	423	248.0	1026666.0	6886.0	-865995.0
16	16	6	40	424	249.0	1036212.0	5306.0	-866494.0
16	16	6	40	424	250.0	1093324.0	4295.0	-866131.0
16	16	6	40	424	251.0	1112208.0	3811.0	-866464.0
16	16	6	40	424	252.0	1068641.0	3439.0	-866389.0
16	16	6	40	454	253.0	990327.0	2938.0	-866859.0
16	16	6	40	454	254.0	906988.0	2953.0	-866477.0
16	16	6	40	455	255.0	817301.0	5318.0	-866804.0
16	16	6	40	455	0.0	714362.0	6140.0	-866632.0
16	16	6	40	455	1.0	602224.0	6849.0	-866635.0
16	16	6	40	456	2.0	478833.0	7499.0	-866582.0
16	16	6	40	456	3.0	383072.0	7556.0	-866466.0
16	16	6	40	456	4.0	320108.0	8258.0	-866604.0
16	16	6	40	457	5.0	264233.0	8341.0	-866440.0
16	16	6	40	457	6.0	209029.0	9084.0	-866921.0
16	16	6	40	457	7.0	129764.0	9513.0	-866629.0
16	16	6	40	457	8.0	21918.0	10179.0	-866779.0
16	16	6	40	458	9.0	-85810.0	10951.0	-866487.0
16	16	6	40	458	10.0	-183710.0	11491.0	-866663.0
16	16	6	40	458	11.0	-249337.0	12926.0	-866614.0
16	16	6	40	459	13.0	-355122.0	14043.0	-866851.0
16	16	6	40	459	14.0	-414324.0	15119.0	-866611.0
16	16	6	40	459	15.0	-460658.0	14653.0	-866812.0
16	16	6	40	459	16.0	-513422.0	15488.0	-866357.0
16	16	6	40	460	17.0	-601074.0	16631.0	-866684.0
16	16	6	40	460	18.0	-715010.0	18011.0	-866165.0
16	16	6	40	460	19.0	-889069.0	19766.0	-866456.0
16	16	6	40	523	20.0	-1167967.0	22307.0	-866218.0
16	16	6	40	524	21.0	-1337668.0	25098.0	-866273.0
16	16	6	40	524	22.0	-1361390.0	29684.0	-866241.0
16	16	6	40	524	23.0	-1351664.0	33441.0	-866260.0
16	16	6	40	525	24.0	-1276084.0	36963.0	-866431.0
16	16	6	40	525	25.0	-1168211.0	40865.0	-866281.0
16	16	6	40	526	26.0	-1043167.0	43583.0	-866664.0
16	16	6	40	536	27.0	-945617.0	46396.0	-866429.0
16	16	6	40	536	28.0	-883710.0	49336.0	-866634.0
16	16	6	40	536	29.0	-862068.0	52150.0	-866316.0
16	16	6	40	537	30.0	-869806.0	54690.0	-866565.0
16	16	6	40	537	31.0	-888058.0	57078.0	-866342.0
16	16	6	40	538	32.0	-922939.0	59458.0	-866516.0
16	16	6	40	538	33.0	-983179.0	61169.0	-866471.0
16	16	6	40	538	34.0	-1046596.0	62681.0	-866444.0
16	16	6	40	539	58.0	-848166.0	52563.0	-866246.0
16	16	6	40	539	59.0	-669701.0	49629.0	-866121.0
16	16	6	40	539	60.0	-485052.0	45210.0	-866104.0
16	16	6	40	540	61.0	-297079.0	41793.0	-866063.0
16	16	6	40	574	62.0	-102148.0	38872.0	-866417.0
16	16	6	40	575	63.0	99221.0	36363.0	-866456.0
16	16	6	40	575	64.0	295036.0	33641.0	-866473.0
16	16	6	40	576	65.0	481156.0	31202.0	-866483.0
16	16	6	40	576	66.0	657104.0	29586.0	-866380.0
16	16	6	40	576	67.0	823891.0	29099.0	-866547.0
16	16	6	40	576	68.0	979777.0	27685.0	-866241.0
16	16	6	40	576	69.0	1095979.0	25778.0	-866687.0
16	16	6	40	577	70.0	1173735.0	23637.0	-866386.0
16	16	6	40	577	71.0	1208716.0	21214.0	-866688.0
16	16	6	40	613	72.0	1187781.0	18963.0	-866503.0
16	16	6	40	651	73.0	1105558.0	17410.0	-866578.0
16	16	6	40	652	74.0	949841.0	15170.0	-866507.0
16	16	6	40	654	75.0	691059.0	12545.0	-866494.0
16	16	6	40	656	76.0	254971.0	10354.0	-866439.0
16	16	6	40	657	77.0	-370541.0	8473.0	-866256.0
16	16	6	40	659	78.0	-948219.0	6314.0	-866411.0
16	16	6	40	660	79.0	-1039501.0	3792.0	-866105.0
16	16	6	40	662	81.0	-83303.0	19.0	-866006.0
16	16	6	40	663	82.0	414835.0	-3459.0	-866323.0
16	16	6	40	666	83.0	729196.0	-6442.0	-865896.0
16	16	6	40	668	84.0	925298.0	-8487.0	-866117.0
16	16	6	40	669	85.0	996160.0	-7813.0	-865863.0
16	16	6	40	670	86.0	978080.0	-8437.0	-865801.0
16	16	6	40	672	87.0	1004554.0	-9321.0	-865611.0
16	16	6	40	673	103.0	273610.0	-22974.0	-865369.0
16	16	6	40	674	104.0	378313.0	-24252.0	-865713.0
16	16	6	40	676	105.0	498514.0	-25996.0	-865352.0
16	16	6	40	677	106.0	642373.0	-27033.0	-865606.0
16	16	6	40	679	107.0	806293.0	-27581.0	-865266.0
16	16	6	40	680	108.0	962706.0	-28346.0	-865481.0
16	16	6	40	682	109.0	1095199.0	-28644.0	-865457.0
16	16	6	40	683	110.0	1179517.0	-28952.0	-865501.0
16	16	6	40	684	111.0	1212757.0	-28467.0	-865666.0
16	16	6	40	686	112.0	1201873.0	-26392.0	-865402.0
16	16	6	40	687	113.0	1145849.0	-25692.0	-865557.0
16	16	6	40	688	114.0	1064645.0	-25133.0	-865284.0
16	16	6	40	688	115.0	950903.0	-24364.0	-865532.0
16	16	6	40	689	116.0	819532.0	-23629.0	-865111.0
16	16	6	40	690	117.0	686731.0	-23544.0	-865405.0
16	16	6	40	690	118.0	558604.0	-23627.0	-865043.0
16	16	6	40	691	119.0	425959.0	-23933.0	-865071.0
16	16	6	40	691	120.0	284963.0	-23928.0	-864736.0
16	16	6	40	692	121.0	131079.0	-23536.0	-864769.0
16	16	6	40	693	122.0	-27166.0	-23701.0	-864737.0
16	16	6	40	693	123.0	-181706.0	-23685.0	-864737.0
16	16	6	40	694	124.0	-331045.0	-23647.0	-864905.0
16	16	6	40	694	126.0	-573772.0	-23870.0	-864947.0
16	16	6	40	695	127.0	-643369.0	-26164.0	-864539.0
16	16	6	40	696	128.0	-674456.0	-27925.0	-865031.0
16	16	6	40	696	129.0	-672083.0	-28572.0	-864698.0
16	16	6	40	697	130.0	-651819.0	-29250.0	-864907.0
16	16	6	40	698	131.0	-607470.0	-30012.0	-864628.0
16	16	6	40	707	132.0	-560278.0	-30546.0	-864640.0
16	16	6	40	708	133.0	-521318.0	-30266.0	-864749.0
16	16	6	40	708	134.0	-479772.0	-28716.0	-864863.0
16	16	6	40	709	135.0	-441722.0	-27737.0	-864711.0
16	16	6	40	709	136.0	-404758.0	-27157.0	-864559.0
16	16	6	40	710	137.0	-367223.0	-26511.0	-864573.0
16	16	6	40	710	138.0	-330181.0	-25974.0	-864362.0
16	16	6	40	710	139.0	-302115.0	-25114.0	-864645.0
16	16	6	40	711	140.0	-275834.0	-25104.0	-864407.0
16	16	6	40	711	141.0	-236593.0	-25352.0	-864769.0
16	16	6	40	711	142.0	-187707.0	-25244.0	-864468.0
16	16	6	40	740	143.0	-131146.0	-24620.0	-864750.0
16	16	6	40	741	144.0	-73742.0	-24279.0	-864591.0
16	16	6	40	741	145.0	-13781.0	-23897.0	-864679.0
16	16	6	40	741	146.0	55620.0	-23721.0	-864571.0
16	16	6	40	742	148.0	228076.0	-24038.0	-864753.0
16	16	6	40	742	149.0	333903.0	-25117.0	-864511.0
16	16	6	40	742	150.0	445613.0	-26279.0	-864844.0
16	16	6	40	743	151.0	534984.0	-26467.0	-864485.0
16	16	6	40	743	152.0	581768.0	-26373.0	-864752.0
16	16	6	40	743	153.0	598328.0	-26652.0	-864382.0
16	16	6	40	743	154.0	587456.0	-26616.0	-864694.0
16	16	6	40	769	155.0	557867.0	-26222.0	-864459.0
16	16	6	40	769	156.0	522901.0	-25197.0	-864681.0
16	16	6	40	769	157.0	478994.0	-22546.0	-864778.0
16	16	6	40	770	158.0	436478.0	-21159.0	-865210.0
16	16	6	40	770	159.0	389418.0	-20518.0	-865109.0
16	16	6	40	770	160.0	332088.0	-19296.0	-865281.0
16	16	6	40	770	161.0	256746.0	-18886.0	-865369.0
16	16	6	40	771	162.0	165395.0	-18453.0	-865270.0
16	16	6	40	771	163.0	67591.0	-17533.0	-865570.0
16	16	6	40	771	164.0	-29762.0	-16818.0	-865266.0
16	16	6	40	772	165.0	-129117.0	-16246.0	-865620.0
16	16	6	40	772	166.0	-214203.0	-15705.0	-865314.0
16	16	6	40	772	167.0	-270501.0	-14523.0	-865393.0
16	16	6	40	772	168.0	-300911.0	-14048.0	-865142.0
16	16	6	40	773	169.0	-306399.0	-13614.0	-865212.0
16	16	6	40	773	171.0	-310057.0	-12945.0	-865173.0
16	16	6	40	773	172.0	-290834.0	-14372.0	-865383.0
16	16	6	40	774	173.0	-250877.0	-15491.0	-864983.0
16	16	6	40	774	174.0	-203079.0	-15904.0	-865234.0
16	16	6	40	774	175.0	-147138.0	-16065.0	-864861.0
16	16	6	40	774	176.0	-67141.0	-16235.0	-865318.0
16	16	6	40	795	177.0	17735.0	-16354.0	-864900.0
16	16	6	40	796	178.0	91591.0	-15008.0	-865172.0
16	16	6	40	796	179.0	158783.0	-12456.0	-864797.0
16	16	6	40	796	180.0	215449.0	-11525.0	-864957.0
16	16	6	40	797	181.0	271097.0	-10611.0	-864849.0
16	16	6	40	797	182.0	330780.0	-9292.0	-864869.0
16	16	6	40	797	183.0	394666.0	-8560.0	-864946.0
16	16	6	40	822	184.0	465298.0	-8122.0	-864853.0
16	16	6	40	823	185.0	530839.0	-8159.0	-864961.0
16	16	6	40	823	186.0	606698.0	-7746.0	-864656.0
16	16	6	40	823	187.0	681089.0	-7347.0	-864986.0
16	16	6	40	824	188.0	742208.0	-7092.0	-864774.0
16	16	6	40	824	189.0	784943.0	-6581.0	-865200.0
16	16	6	40	824	190.0	811473.0	-6289.0	-864971.0
16	16	6	40	825	191.0	834754.0	-6246.0	-865141.0
16	16	6	40	825	193.0	870928.0	-6621.0	-865109.0
16	16	6	40	850	194.0	905231.0	-7851.0	-865093.0
16	16	6	40	851	195.0	936152.0	-9015.0	-864821.0
16	16	6	40	885	196.0	942810.0	-9687.0	-865072.0
16	16	6	40	930	197.0	939604.0	-10462.0	-864671.0
16	16	6	40	936	198.0	926504.0	-10606.0	-865011.0
16	16	6	40	936	199.0	907220.0	-10746.0	-864555.0
16	16	6	40	936	200.0	892727.0	-9649.0	-864679.0
16	16	6	40	937	201.0	878963.0	-7724.0	-864395.0
16	16	6	40	937	202.0	866848.0	-6972.0	-864546.0
16	16	6	40	937	203.0	855401.0	-6305.0	-864390.0
16	16	6	40	965	204.0	844596.0	-6148.0	-864646.0
16	16	6	40	965	205.0	827299.0	-6242.0	-864288.0
16	16	6	40	966	206.0	790086.0	-6462.0	-864709.0
16	16	6	40	966	207.0	739529.0	-6802.0	-864364.0
16	16	6	40	966	208.0	680484.0	-6297.0	-864562.0
16	16	6	40	966	209.0	632213.0	-6025.0	-864307.0
16	16	6	40	967	216.0	646631.0	-6844.0	-864482.0
16	16	6	40	967	238.0	1003108.0	-7577.0	-863823.0
16	16	6	40	967	4.0	75604.0	-3675.0	-863210.0
16	16	6	40	967	5.0	53604.0	-4226.0	-863076.0
16	16	6	40	968	6.0	35696.0	-6086.0	-863054.0
16	16	6	40	968	7.0	21059.0	-6987.0	-863172.0
16	16	6	40	968	8.0	6495.0	-6982.0	-862901.0
16	16	6	40	968	9.0	-27186.0	-6899.0	-863160.0
16	16	6	40	968	10.0	-70167.0	-7024.0	-862799.0
16	16	6	40	994	11.0	-106389.0	-7001.0	-863132.0
16	16	6	40	994	12.0	-147201.0	-6566.0	-862690.0
16	16	6	40	994	13.0	-200999.0	-4726.0	-862890.0
16	16	6	40	994	14.0	-266545.0	-3072.0	-862662.0
16	16	6	40	995	15.0	-319985.0	-2338.0	-863011.0
16	16	6	40	995	16.0	-357189.0	-1504.0	-862640.0
16	16	6	40	995	17.0	-392436.0	-662.0	-862936.0
16	16	6	40	995	18.0	-429702.0	-266.0	-862690.0
16	16	6	40	996	19.0	-457956.0	-196.0	-862762.0
16	16	6	40	996	20.0	-471929.0	559.0	-862662.0
16	16	6	40	996	21.0	-484537.0	1080.0	-862646.0
16	16	6	40	996	22.0	-510836.0	1697.0	-862969.0
16	16	6	40	997	23.0	-546328.0	1363.0	-862796.0
16	16	6	40	997	24.0	-580483.0	1672.0	-863161.0
16	16	6	40	997	25.0	-621152.0	2039.0	-862852.0
16	16	6	41	17	27.0	-731195.0	3016.0	-862896.0
16	16	6	41	36	28.0	-781113.0	1477.0	-863081.0
16	16	6	41	36	29.0	-818784.0	272.0	-862887.0
16	16	6	41	37	30.0	-845992.0	138.0	-862712.0
16	16	6	41	37	31.0	-876449.0	-54.0	-862692.0
16	16	6	41	37	32.0	-901837.0	-224.0	-862562.0
16	16	6	41	37	33.0	-904715.0	1561.0	-862939.0
16	16	6	41	38	34.0	-894576.0	3413.0	-862552.0
16	16	6	41	38	35.0	-878439.0	4538.0	-862741.0
16	16	6	41	38	36.0	-850666.0	5348.0	-862412.0
16	16	6	41	38	37.0	-813311.0	5384.0	-862772.0
16	16	6	41	39	38.0	-777953.0	6005.0	-862375.0
16	16	6	41	39	39.0	-762244.0	6723.0	-862531.0
16	16	6	41	39	40.0	-755608.0	6618.0	-862173.0
16	16	6	41	39	41.0	-736310.0	6749.0	-862427.0
16	16	6	41	39	49.0	-1022236.0	7991.0	-862022.0
16	16	6	41	40	50.0	-1092476.0	7798.0	-862276.0
16	16	6	41	40	51.0	-1147700.0	5777.0	-861859.0
16	16	6	41	40	52.0	-1176204.0	4762.0	-862121.0
16	16	6	41	40	53.0	-1185007.0	4024.0	-862031.0
16	16	6	41	41	54.0	-1170805.0	3220.0	-862141.0
16	16	6	41	41	55.0	-1123574.0	3384.0	-862206.0
16	16	6	41	63	56.0	-1060412.0	3126.0	-861912.0
16	16	6	41	78	57.0	-986008.0	3529.0	-861970.0
16	16	6	41	78	58.0	-900657.0	6096.0	-861983.0
16	16	6	41	78	59.0	-799373.0	7301.0	-862095.0
16	16	6	41	78	60.0	-682561.0	8266.0	-861956.0
16	16	6	41	79	61.0	-580080.0	8751.0	-862127.0
16	16	6	41	79	62.0	-499887.0	9316.0	-861894.0
16	16	6	41	79	63.0	-427894.0	9250.0	-862276.0
16	16	6	41	79	64.0	-364205.0	9407.0	-861942.0
16	16	6	41	80	65.0	-321171.0	9284.0	-862331.0
16	16	6	41	80	66.0	-308222.0	9189.0	-862062.0
16	16	6	41	80	67.0	-294597.0	9622.0	-862251.0
16	16	6	41	80	68.0	-274309.0	9934.0	-862201.0
16	16	6	41	80	69.0	-251360.0	9526.0	-862141.0
16	16	6	41	81	70.0	-237184.0	9999.0	-862337.0
16	16	6	41	81	72.0	-244308.0	10151.0	-862417.0
16	16	6	41	81	73.0	-243452.0	8006.0	-862080.0
16	16	6	41	81	74.0	-237146.0	6356.0	-862401.0
16	16	6	41	81	75.0	-217259.0	6070.0	-862144.0
16	16	6	41	81	76.0	-156822.0	5438.0	-862406.0
16	16	6	41	82	77.0	-56037.0	4954.0	-862104.0
16	16	6	41	107	78.0	72249.0	4408.0	-862300.0
16	16	6	41	120	79.0	216479.0	4606.0	-862263.0
16	16	6	41	120	80.0	372428.0	6257.0	-862172.0
16	16	6	41	120	81.0	542193.0	7612.0	-862399.0
16	16	6	41	121	82.0	698912.0	9046.0	-862167.0
16	16	6	41	121	83.0	824520.0	10039.0	-862514.0
16	16	6	41	121	84.0	923409.0	10580.0	-862115.0
16	16	6	41	122	85.0	1007323.0	11149.0	-862522.0
16	16	6	41	122	86.0	1093883.0	11153.0	-862191.0
16	16	6	41	122	87.0	1177474.0	11030.0	-862525.0
16	16	6	41	122	88.0	1261720.0	10894.0	-862359.0
16	16	6	41	122	89.0	1330616.0	10968.0	-862492.0
16	16	6	41	123	90.0	1355289.0	11108.0	-862490.0
16	16	6	41	123	91.0	1311184.0	10788.0	-862422.0
16	16	6	41	123	92.0	987862.0	10271.0	-862540.0
16	16	6	41	123	94.0	-886394.0	10963.0	-862272.0
16	16	6	41	124	95.0	-1808199.0	10146.0	-861822.0
16	16	6	41	124	96.0	-2436024.0	7417.0	-862063.0
16	16	6	41	124	97.0	-2655484.0	6645.0	-861738.0
16	16	6	41	124	98.0	-2488177.0	6076.0	-862086.0
16	16	6	41	125	99.0	-2045942.0	4969.0	-861885.0
16	16	6	41	140	100.0	-1388712.0	4672.0	-861987.0
16	16	6	41	163	101.0	-561308.0	4979.0	-862077.0
16	16	6	41	163	102.0	358014.0	5805.0	-861881.0
16	16	6	41	163	103.0	1175443.0	8170.0	-862075.0
16	16	6	41	164	104.0	1704847.0	9206.0	-862090.0
16	16	6	41	164	105.0	1843636.0	10023.0	-862236.0
16	16	6	41	164	106.0	1635386.0	10752.0	-861954.0
16	16	6	41	164	107.0	1191091.0	10911.0	-862215.0
16	16	6	41	198	108.0	600817.0	10744.0	-861917.0
16	16	6	41	220	109.0	-101494.0	10678.0	-862192.0
16	16	6	41	221	110.0	-922034.0	10908.0	-861829.0
16	16	6	41	221	111.0	-1745859.0	11264.0	-862047.0
16	16	6	41	221	112.0	-2403664.0	11459.0	-861692.0
16	16	6	41	221	113.0	-2820371.0	11057.0	-861701.0
16	16	6	41	222	114.0	-2986210.0	11079.0	-861589.0
16	16	6	41	222	115.0	-2880011.0	10703.0	-861496.0
16	16	6	41	222	117.0	-2024149.0	10081.0	-861619.0
16	16	6	41	222	118.0	-1538200.0	8606.0	-862092.0
16	16	6	41	223	119.0	-1098349.0	6473.0	-861790.0
16	16	6	41	223	120.0	-694995.0	5873.0	-862029.0
16	16	6	41	223	121.0	-292039.0	7643.0	-861729.0
16	16	6	41	223	122.0	105404.0	8694.0	-862167.0
16	16	6	41	224	123.0	480014.0	8911.0	-861944.0
16	16	6	41	224	124.0	792763.0	9257.0	-862017.0
16	16	6	41	224	140.0	1333753.0	7761.0	-862529.0
16	16	6	41	225	141.0	1255317.0	5329.0	-862367.0
16	16	6	41	225	142.0	1175108.0	4323.0	-862529.0
16	16	6	41	225	143.0	1103460.0	3806.0	-862165.0
16	16	6	41	226	144.0	1031546.0	3554.0	-862465.0
16	16	6	41	226	145.0	979520.0	2749.0	-861989.0
16	16	6	41	248	146.0	945923.0	1963.0	-862176.0
16	16	6	41	273	147.0	918510.0	2368.0	-861732.0
16	16	6	41	273	148.0	877922.0	4562.0	-861839.0
16	16	6	41	273	149.0	816184.0	5678.0	-861784.0
16	16	6	41	274	150.0	757844.0	5904.0	-862162.0
16	16	6	41	274	151.0	713569.0	6066.0	-861884.0
16	16	6	41	274	152.0	700034.0	6139.0	-862034.0
16	16	6	41	274	153.0	696196.0	6332.0	-861986.0
16	16	6	41	275	154.0	700564.0	6828.0	-861923.0
16	16	6	41	275	155.0	708461.0	7446.0	-861962.0
16	16	6	41	275	156.0	713511.0	7524.0	-861819.0
16	16	6	41	275	157.0	706737.0	7288.0	-862079.0
16	16	6	41	276	158.0	689033.0	7104.0	-861835.0
16	16	6	41	276	159.0	680274.0	6793.0	-862125.0
16	16	6	41	276	160.0	704848.0	7173.0	-861851.0
16	16	6	41	276	162.0	832391.0	7646.0	-862015.0
16	16	6	41	276	169.0	1243619.0	8579.0	-861339.0
16	16	6	41	277	170.0	1222718.0	8276.0	-861639.0
16	16	6	41	277	171.0	1144239.0	6549.0	-861276.0
16	16	6	41	277	172.0	1030300.0	5959.0	-861561.0
16	16	6	41	278	173.0	905231.0	5731.0	-861207.0
16	16	6	41	278	174.0	772345.0	5779.0	-861543.0
16	16	6	41	294	175.0	625181.0	6459.0	-861424.0
16	16	6	41	294	176.0	471844.0	8476.0	-861536.0
16	16	6	41	294	177.0	319827.0	11271.0	-861596.0
16	16	6	41	316	178.0	171040.0	11933.0	-861541.0
16	16	6	41	316	179.0	25636.0	13209.0	-861734.0
16	16	6	41	317	180.0	-68546.0	16848.0	-861346.0
16	16	6	41	317	181.0	-134322.0	19663.0	-861564.0
16	16	6	41	317	182.0	-179074.0	23053.0	-861275.0
16	16	6	41	317	183.0	-200565.0	25537.0	-861514.0
16	16	6	41	318	184.0	-240232.0	28161.0	-861242.0
16	16	6	41	338	185.0	-281828.0	31436.0	-861324.0
16	16	6	41	338	186.0	-314021.0	34418.0	-861223.0
16	16	6	41	339	187.0	-341671.0	37847.0	-861272.0
16	16	6	41	339	188.0	-344183.0	41325.0	-861277.0
16	16	6	41	339	189.0	-343709.0	44044.0	-861044.0
16	16	6	41	339	190.0	-335248.0	47133.0	-861254.0
16	16	6	41	340	191.0	-312022.0	50259.0	-860921.0
16	16	6	41	340	192.0	-282198.0	52440.0	-861363.0
16	16	6	41	340	193.0	-221353.0	52713.0	-861016.0
16	16	6	41	340	194.0	-151543.0	53636.0	-861350.0
16	16	6	41	341	195.0	-82904.0	55159.0	-860887.0
16	16	6	41	341	196.0	16165.0	56708.0	-861139.0
16	16	6	41	341	197.0	116420.0	57704.0	-860976.0
16	16	6	41	341	198.0	197849.0	59103.0	-861179.0
16	16	6	41	342	199.0	260778.0	62209.0	-861290.0
16	16	6	41	342	200.0	303890.0	63763.0	-861182.0
16	16	6	41	342	201.0	338544.0	64966.0	-861463.0
16	16	6	41	342	202.0	368119.0	66955.0	-861199.0
16	16	6	41	343	203.0	372826.0	67638.0	-861419.0
16	16	6	41	343	204.0	405198.0	68013.0	-861104.0
16	16	6	41	343	205.0	433949.0	68262.0	-861374.0
16	16	6	41	343	206.0	436558.0	68835.0	-861138.0
16	16	6	41	343	207.0	421809.0	68412.0	-861362.0
16	16	6	41	344	208.0	372803.0	66393.0	-861208.0
16	16	6	41	344	209.0	341554.0	64741.0	-861507.0
16	16	6	41	359	210.0	296821.0	63336.0	-861649.0
16	16	6	41	359	211.0	248977.0	62960.0	-861370.0
16	16	6	41	359	212.0	194818.0	63501.0	-861694.0
16	16	6	41	360	213.0	125197.0	62993.0	-861219.0
16	16	6	41	360	214.0	41957.0	61937.0	-861493.0
16	16	6	41	378	215.0	-81395.0	59908.0	-861327.0
16	16	6	41	378	216.0	-203594.0	56987.0	-861775.0
16	16	6	41	379	217.0	-320864.0	55796.0	-861419.0
16	16	6	41	379	218.0	-440690.0	54821.0	-861796.0
16	16	6	41	379	219.0	-551352.0	53433.0	-861440.0
16	16	6	41	379	220.0	-668459.0	51834.0	-861621.0
16	16	6	41	380	221.0	-760777.0	50466.0	-861392.0
16	16	6	41	380	222.0	-809392.0	47830.0	-861429.0
16	16	6	41	380	223.0	-821262.0	43451.0	-861379.0
16	16	6	41	380	224.0	-801282.0	40019.0	-861333.0
16	16	6	41	381	225.0	-747006.0	37443.0	-861451.0
16	16	6	41	396	226.0	-683507.0	36340.0	-861192.0
16	16	6	41	397	227.0	-617178.0	34839.0	-861371.0
16	16	6	41	397	228.0	-546459.0	33436.0	-861031.0
16	16	6	41	397	229.0	-487474.0	31834.0	-861411.0
16	16	6	41	397	230.0	-429627.0	28561.0	-861116.0
16	16	6	41	398	231.0	-364988.0	24171.0	-861299.0
16	16	6	41	398	232.0	-286747.0	21687.0	-861234.0
16	16	6	41	398	233.0	-225921.0	20813.0	-861177.0
16	16	6	41	398	234.0	-175016.0	19710.0	-861336.0
16	16	6	41	399	235.0	-140011.0	17511.0	-861119.0
16	16	6	41	399	236.0	-151534.0	15383.0	-861275.0
16	16	6	41	399	237.0	-219344.0	13099.0	-861301.0
16	16	6	41	399	238.0	-385794.0	8738.0	-861360.0
16	16	6	41	415	239.0	-713530.0	5039.0	-861162.0
16	16	6	41	415	240.0	-1214874.0	2968.0	-861411.0
16	16	6	41	416	241.0	-1710187.0	2714.0	-861008.0
16	16	6	41	416	242.0	-1767190.0	1549.0	-861166.0
16	16	6	41	416	243.0	-1368717.0	248.0	-860759.0
16	16	6	41	416	244.0	-696259.0	-1616.0	-861010.0
16	16	6	41	416	245.0	-37530.0	-4450.0	-860775.0
16	16	6	41	435	246.0	410375.0	-7954.0	-861001.0
16	16	6	41	435	247.0	693241.0	-9998.0	-860983.0
16	16	6	41	436	248.0	795524.0	-9529.0	-860949.0
16	16	6	41	436	249.0	736045.0	-10806.0	-861010.0
16	16	6	41	436	250.0	684204.0	-11414.0	-860889.0
16	16	6	41	436	251.0	529786.0	-12367.0	-861215.0
16	16	6	41	436	252.0	300333.0	-13716.0	-860884.0
16	16	6	41	437	253.0	62076.0	-17094.0	-861321.0
16	16	6	41	455	254.0	-247969.0	-19610.0	-860971.0
16	16	6	41	456	255.0	-555056.0	-20194.0	-861129.0
16	16	6	41	456	0.0	-698171.0	-19969.0	-860776.0
16	16	6	41	456	1.0	-654911.0	-20136.0	-860941.0
16	16	6	41	456	2.0	-481068.0	-20764.0	-860757.0
16	16	6	41	457	3.0	-175181.0	-20509.0	-860727.0
16	16	6	41	457	4.0	149070.0	-22190.0	-860958.0
16	16	6	41	457	5.0	398873.0	-24384.0	-861132.0
16	16	6	41	457	6.0	525625.0	-25107.0	-861389.0
16	16	6	41	458	7.0	529934.0	-24166.0	-861296.0
16	16	6	41	458	8.0	484314.0	-23945.0	-861627.0
16	16	6	41	476	9.0	425056.0	-24103.0	-861361.0
16	16	6	41	476	10.0	370006.0	-24163.0	-861821.0
16	16	6	41	476	11.0	358519.0	-23737.0	-861667.0
16	16	6	41	477	12.0	360434.0	-25892.0	-862087.0
16	16	6	41	477	13.0	376429.0	-27362.0	-861836.0
16	16	6	41	477	14.0	411736.0	-27557.0	-862007.0
16	16	6	41	477	15.0	421373.0	-25707.0	-861930.0
16	16	6	41	478	16.0	403958.0	-24929.0	-861739.0
16	16	6	41	478	17.0	349856.0	-24317.0	-861650.0
16	16	6	41	478	18.0	241008.0	-23653.0	-861429.0
16	16	6	41	478	19.0	124648.0	-24693.0	-861516.0
16	16	6	41	496	20.0	6448.0	-26895.0	-861216.0
16	16	6	41	496	21.0	-111047.0	-26819.0	-861741.0
16	16	6	41	497	22.0	-196832.0	-25501.0	-861336.0
16	16	6	41	497	23.0	-244154.0	-24796.0	-861737.0
16	16	6	41	497	24.0	-260079.0	-24214.0	-861437.0
16	16	6	41	497	25.0	-273612.0	-24172.0	-861601.0
16	16	6	41	498	26.0	-294192.0	-23840.0	-861542.0
16	16	6	41	516	27.0	-307890.0	-25689.0	-861904.0
16	16	6	41	516	28.0	-324962.0	-26941.0	-861703.0
16	16	6	41	516	29.0	-352447.0	-26404.0	-861897.0
16	16	6	41	517	30.0	-369713.0	-24925.0	-861886.0
16	16	6	41	517	31.0	-382152.0	-24553.0	-861757.0
16	16	6	41	517	32.0	-396671.0	-24827.0	-861849.0
16	16	6	41	517	33.0	-426331.0	-24661.0	-861616.0
16	16	6	41	518	34.0	-473303.0	-25359.0	-861861.0
16	16	6	41	518	35.0	-524532.0	-27173.0	-861501.0
16	16	6	41	518	36.0	-589114.0	-27924.0	-861762.0
16	16	6	41	518	37.0	-646779.0	-26927.0	-861531.0
16	16	6	41	519	38.0	-700212.0	-26242.0	-861545.0
16	16	6	41	519	39.0	-743166.0	-25666.0	-861411.0
16	16	6	41	519	40.0	-730305.0	-25227.0	-861330.0
16	16	6	41	519	41.0	-671395.0	-25249.0	-861401.0
16	16	6	41	537	42.0	-602533.0	-27434.0	-861099.0
16	16	6	41	538	43.0	-533309.0	-28495.0	-861312.0
16	16	6	41	538	44.0	-444316.0	-26899.0	-861001.0
16	16	6	41	538	45.0	-338498.0	-25631.0	-861411.0
16	16	6	41	539	46.0	-253308.0	-25277.0	-861049.0
16	16	6	41	539	47.0	-176396.0	-24813.0	-861457.0
16	16	6	41	539	48.0	-124083.0	-24575.0	-861301.0
16	16	6	41	539	49.0	-74736.0	-25388.0	-861607.0
16	16	6	41	556	50.0	-36449.0	-27271.0	-861166.0
16	16	6	41	557	51.0	-13832.0	-27872.0	-861379.0
16	16	6	41	557	52.0	-21447.0	-26177.0	-861097.0
16	16	6	41	557	53.0	-38137.0	-25221.0	-861298.0
16	16	6	41	557	54.0	-56417.0	-24495.0	-861282.0
16	16	6	41	558	55.0	-110848.0	-24491.0	-861188.0
16	16	6	41	558	56.0	-179849.0	-24127.0	-861217.0
16	16	6	41	575	57.0	-226219.0	-25423.0	-861049.0
16	16	6	41	575	58.0	-271822.0	-25659.0	-861349.0
16	16	6	41	576	59.0	-303483.0	-24228.0	-861191.0
16	16	6	41	576	60.0	-308152.0	-23153.0	-861479.0
16	16	6	41	576	61.0	-293899.0	-22179.0	-861186.0
16	16	6	41	577	62.0	-242514.0	-21293.0	-861477.0
16	16	6	41	577	63.0	-149994.0	-19995.0	-861225.0
16	16	6	41	577	64.0	-44533.0	-20536.0	-861407.0
16	16	6	41	577	65.0	64888.0	-21932.0	-861282.0
16	16	6	41	578	66.0	173242.0	-22033.0	-861231.0
16	16	6	41	578	67.0	281089.0	-20301.0	-861291.0
16	16	6	41	578	68.0	346573.0	-18924.0	-860935.0
16	16	6	41	578	69.0	374979.0	-17830.0	-861138.0
16	16	6	41	579	70.0	390338.0	-17172.0	-860755.0
16	16	6	41	595	71.0	389096.0	-16837.0	-861071.0
16	16	6	41	595	72.0	365271.0	-18467.0	-860563.0
16	16	6	41	596	73.0	325114.0	-19131.0	-860818.0
16	16	6	41	596	74.0	300416.0	-17618.0	-860600.0
16	16	6	41	596	75.0	291916.0	-15631.0	-860922.0
16	16	6	41	597	76.0	297845.0	-14831.0	-860612.0
16	16	6	41	597	77.0	320258.0	-14359.0	-860875.0
16	16	6	41	597	78.0	323124.0	-13057.0	-860579.0
16	16	6	41	597	79.0	306623.0	-13548.0	-860771.0
16	16	6	41	614	80.0	297258.0	-15136.0	-860649.0
16	16	6	41	615	81.0	271084.0	-15033.0	-860632.0
16	16	6	41	615	82.0	223953.0	-13291.0	-860669.0
16	16	6	41	616	83.0	184816.0	-12287.0	-860502.0
16	16	6	41	616	84.0	167463.0	-11662.0	-860780.0
16	16	6	41	616	85.0	153449.0	-10538.0	-860591.0
16	16	6	41	616	86.0	134493.0	-10081.0	-861070.0
16	16	6	41	635	87.0	130105.0	-11676.0	-860783.0
16	16	6	41	635	88.0	122779.0	-12160.0	-861111.0
16	16	6	41	635	89.0	101082.0	-10807.0	-860922.0
16	16	6	41	635	90.0	63376.0	-9071.0	-860967.0
16	16	6	41	636	91.0	-4339.0	-8203.0	-861046.0
16	16	6	41	636	92.0	-91419.0	-7312.0	-860967.0
16	16	6	41	636	93.0	-203861.0	-7216.0	-861201.0
16	16	6	41	637	94.0	-346662.0	-7509.0	-860905.0
16	16	6	41	637	95.0	-503084.0	-9018.0	-861140.0
16	16	6	41	637	96.0	-650684.0	-9517.0	-861078.0
16	16	6	41	637	97.0	-770972.0	-8019.0	-861482.0
16	16	6	41	638	98.0	-855483.0	-7178.0	-861197.0
16	16	6	41	655	99.0	-900352.0	-6993.0	-861471.0
16	16	6	41	656	100.0	-911591.0	-6957.0	-861023.0
16	16	6	41	656	101.0	-900150.0	-6915.0	-861185.0
16	16	6	41	656	102.0	-875711.0	-8704.0	-860931.0
16	16	6	41	657	103.0	-848228.0	-9684.0	-861026.0
16	16	6	41	657	104.0	-822876.0	-8129.0	-860869.0
16	16	6	41	657	105.0	-789474.0	-6617.0	-860726.0
16	16	6	41	658	106.0	-733454.0	-6331.0	-860674.0
16	16	6	41	658	107.0	-678399.0	-6105.0	-860584.0
16	16	6	41	658	108.0	-645449.0	-5872.0	-860857.0
16	16	6	41	658	109.0	-614622.0	-7285.0	-860550.0
16	16	6	41	676	110.0	-580715.0	-8749.0	-860811.0
16	16	6	41	677	111.0	-561082.0	-9127.0	-860414.0
16	16	6	41	677	112.0	-553092.0	-7621.0	-860667.0
16	16	6	41	677	113.0	-550330.0	-7138.0	-860308.0
16	16	6	41	678	114.0	-539974.0	-6942.0	-860663.0
16	16	6	41	678	115.0	-522277.0	-6605.0	-860478.0
16	16	6	41	678	116.0	-516194.0	-7021.0	-860294.0
16	16	6	41	697	117.0	-520654.0	-8764.0	-860276.0
16	16	6	41	697	118.0	-525343.0	-9417.0	-860402.0
16	16	6	41	698	119.0	-521648.0	-8024.0	-860486.0
16	16	6	41	698	120.0	-516829.0	-7117.0	-860342.0
16	16	6	41	698	121.0	-526392.0	-6912.0	-860589.0
16	16	6	41	699	122.0	-553429.0	-6838.0	-860422.0
16	16	6	41	699	123.0	-590868.0	-6811.0	-860838.0
16	16	6	41	699	124.0	-630141.0	-8004.0	-860582.0
16	16	6	41	699	125.0	-687364.0	-10131.0	-861019.0
16	16	6	41	700	126.0	-765415.0	-10639.0	-860789.0
16	16	6	41	700	127.0	-826389.0	-8894.0	-861186.0
16	16	6	41	700	128.0	-876993.0	-8430.0	-861039.0
16	16	6	41	700	129.0	-927929.0	-8092.0	-861056.0
16	16	6	41	701	130.0	-998421.0	-7955.0	-861022.0
16	16	6	41	718	131.0	-1073401.0	-7967.0	-860938.0
16	16	6	41	718	132.0	-1133688.0	-9644.0	-861232.0
16	16	6	41	719	133.0	-1187512.0	-10465.0	-860869.0
16	16	6	41	719	134.0	-1250248.0	-9541.0	-861085.0
16	16	6	41	719	135.0	-1317519.0	-8476.0	-860740.0
16	16	6	41	719	136.0	-1378620.0	-8191.0	-861223.0
16	16	6	41	720	137.0	-1431040.0	-8007.0	-860893.0
16	16	6	41	720	138.0	-1482958.0	-7395.0	-861062.0
16	16	6	41	720	139.0	-1536619.0	-9151.0	-860931.0
16	16	6	41	739	140.0	-1579239.0	-10919.0	-860936.0
16	16	6	41	739	141.0	-1607490.0	-10807.0	-860775.0
16	16	6	41	740	142.0	-1618626.0	-8672.0	-860978.0
16	16	6	41	740	143.0	-1626037.0	-7873.0	-860881.0
16	16	6	41	740	144.0	-1623185.0	-7541.0	-860853.0
16	16	6	41	741	145.0	-1596412.0	-7152.0	-860813.0
16	16	6	41	741	146.0	-1580306.0	-7482.0	-860670.0
16	16	6	41	741	147.0	-1583943.0	-9343.0	-860894.0
16	16	6	41	741	148.0	-1588681.0	-10070.0	-860612.0
16	16	6	41	760	149.0	-1587698.0	-8149.0	-860938.0
16	16	6	41	760	150.0	-1586271.0	-7014.0	-860662.0
16	16	6	41	761	151.0	-1585105.0	-6871.0	-860911.0
16	16	6	41	761	152.0	-1605653.0	-5927.0	-860748.0
16	16	6	41	761	153.0	-1640292.0	-5422.0	-860813.0
16	16	6	41	761	154.0	-1610836.0	-6997.0	-860699.0
16	16	6	41	762	155.0	-1487626.0	-9014.0	-860726.0
16	16	6	41	762	156.0	-1351722.0	-8669.0	-860848.0
16	16	6	41	762	157.0	-1233679.0	-6636.0	-860684.0
16	16	6	41	762	158.0	-1129958.0	-6091.0	-861072.0
16	16	6	41	763	159.0	-1074446.0	-5993.0	-860641.0
16	16	6	41	763	160.0	-1068624.0	-5196.0	-860851.0
16	16	6	41	763	161.0	-1067602.0	-4997.0	-860412.0
16	16	6	41	781	162.0	-1039159.0	-6510.0	-860810.0
16	16	6	41	782	163.0	-1008714.0	-7041.0	-860629.0
16	16	6	41	782	164.0	-1005549.0	-4706.0	-861053.0
16	16	6	41	782	165.0	-1043210.0	-3434.0	-860807.0
16	16	6	41	783	166.0	-1116550.0	-3378.0	-861197.0
16	16	6	41	783	167.0	-1215441.0	-2992.0	-861084.0
16	16	6	41	783	168.0	-1344261.0	-2739.0	-861186.0
16	16	6	41	784	169.0	-1404521.0	-3843.0	-861189.0
16	16	6	41	801	170.0	-1368486.0	-5197.0	-861048.0
16	16	6	41	802	171.0	-1269210.0	-4761.0	-861177.0
16	16	6	41	802	172.0	-1089301.0	-2070.0	-861034.0
16	16	6	41	802	173.0	-870302.0	-1241.0	-861458.0
16	16	6	41	803	174.0	-662033.0	-674.0	-861244.0
16	16	6	41	803	175.0	-489052.0	-42.0	-861636.0
16	16	6	41	803	176.0	-354906.0	-54.0	-861341.0
16	16	6	41	804	177.0	-284206.0	-1627.0	-861581.0
16	16	6	41	804	178.0	-274837.0	-2061.0	-861447.0
16	16	6	41	804	179.0	-305324.0	-856.0	-861565.0
16	16	6	41	804	180.0	-336934.0	100.0	-861757.0
16	16	6	41	805	181.0	-319737.0	1143.0	-861563.0
16	16	6	41	805	182.0	-292506.0	1581.0	-861870.0
16	16	6	41	822	183.0	-287586.0	2266.0	-861408.0
16	16	6	41	823	184.0	-296134.0	1319.0	-861698.0
16	16	6	41	823	185.0	-316121.0	18.0	-861537.0
16	16	6	41	823	186.0	-413196.0	1029.0	-861959.0
16	16	6	41	823	187.0	-670351.0	2785.0	-861604.0
16	16	6	41	824	188.0	-1007248.0	2954.0	-861755.0
16	16	6	41	824	189.0	-1209842.0	3668.0	-861342.0
16	16	6	41	824	190.0	-1249804.0	4188.0	-861522.0
16	16	6	41	825	191.0	-1084852.0	3526.0	-861316.0
16	16	6	41	825	192.0	-781831.0	1708.0	-861395.0
16	16	6	41	843	193.0	-408625.0	1209.0	-861348.0
16	16	6	41	843	194.0	-52347.0	1226.0	-861222.0
16	16	6	41	844	195.0	221854.0	2809.0	-861321.0
16	16	6	41	844	196.0	432469.0	4293.0	-861056.0
16	16	6	41	844	197.0	570419.0	5237.0	-861429.0
16	16	6	41	845	198.0	680084.0	6411.0	-861125.0
16	16	6	41	845	199.0	797818.0	4900.0	-861414.0
16	16	6	41	845	200.0	966998.0	3446.0	-861236.0
16	16	6	41	864	201.0	1192345.0	4885.0	-861432.0
16	16	6	41	865	202.0	1464844.0	6623.0	-861310.0
16	16	6	41	865	203.0	1712427.0	7111.0	-861409.0
16	16	6	41	865	204.0	1864902.0	7741.0	-861433.0
16	16	6	41	866	205.0	1937261.0	7944.0	-861207.0
16	16	6	41	866	206.0	1954251.0	7781.0	-861413.0
16	16	6	41	866	207.0	1831983.0	5407.0	-861084.0
16	16	6	41	867	208.0	1569194.0	4693.0	-861461.0
16	16	6	41	867	209.0	1249705.0	5202.0	-861116.0
16	16	6	41	867	210.0	893774.0	7058.0	-861656.0
16	16	6	41	868	211.0	523853.0	8063.0	-861291.0
16	16	6	41	868	212.0	125506.0	8349.0	-861590.0
16	16	6	41	868	213.0	-312652.0	8174.0	-861480.0
16	16	6	41	886	214.0	-742899.0	6465.0	-861521.0
16	16	6	41	887	215.0	-1143635.0	5632.0	-861497.0
16	16	6	41	887	216.0	-1539850.0	6938.0	-861279.0
16	16	6	41	887	217.0	-1967847.0	7991.0	-861406.0
16	16	6	41	888	218.0	-2429338.0	8159.0	-861041.0
16	16	6	41	888	219.0	-2888632.0	8349.0	-861218.0
16	16	6	41	888	220.0	-3331325.0	8609.0	-860921.0
16	16	6	41	889	221.0	-3746985.0	8261.0	-861186.0
16	16	6	41	889	222.0	-4167416.0	6419.0	-860797.0
16	16	6	41	906	223.0	-4574471.0	5317.0	-860971.0
16	16	6	41	907	224.0	-4894080.0	6286.0	-860782.0
16	16	6	41	907	225.0	-5090292.0	8957.0	-860780.0
16	16	6	41	907	226.0	-5183054.0	10123.0	-860918.0
16	16	6	41	908	227.0	-5207902.0	10695.0	-860549.0
16	16	6	41	908	228.0	-5231031.0	11042.0	-860871.0
16	16	6	41	908	229.0	-5273456.0	9214.0	-860477.0
16	16	6	41	927	230.0	-5383651.0	7534.0	-860730.0
16	16	6	41	927	231.0	-5567739.0	9109.0	-860262.0
16	16	6	41	928	232.0	-5807606.0	10620.0	-860683.0
16	16	6	41	928	233.0	-6143972.0	11474.0	-860326.0
16	16	6	41	928	234.0	-6567619.0	11642.0	-860481.0
16	16	6	41	929	235.0	-7047208.0	11069.0	-860347.0
16	16	6	41	929	236.0	-7525751.0	9923.0	-860341.0
16	16	6	41	929	237.0	-7928859.0	9903.0	-860276.0
16	16	6	41	930	238.0	-8203863.0	10845.0	-860092.0
16	16	6	41	930	239.0	-8364157.0	10870.0	-860189.0
16	16	6	41	930	240.0	-8388608.0	10882.0	-859920.0
16	16	6	41	930	241.0	-8388608.0	11432.0	-860329.0
16	16	6	41	931	242.0	-8388608.0	11453.0	-860027.0
16	16	6	41	931	243.0	-8367118.0	10922.0	-860273.0
16	16	6	41	931	244.0	-8211856.0	8736.0	-860111.0
16	16	6	41	946	245.0	-8029572.0	6676.0	-860216.0
16	16	6	41	947	246.0	-7797809.0	5523.0	-860216.0
16	16	6	41	947	247.0	-7422814.0	4969.0	-860169.0
16	16	6	41	948	248.0	-6842639.0	4618.0	-860537.0
16	16	6	41	948	249.0	-6130216.0	5206.0	-860283.0
16	16	6	41	948	250.0	-5403960.0	7584.0	-860677.0
16	16	6	41	949	251.0	-4763509.0	7691.0	-860836.0
16	16	6	41	949	252.0	-4283641.0	6777.0	-861183.0
16	16	6	41	949	253.0	-3959942.0	8834.0	-861059.0
16	16	6	41	964	254.0	-3804456.0	9719.0	-861502.0
16	16	6	41	965	255.0	-3928174.0	9917.0	-861214.0
16	16	6	41	965	0.0	-4546245.0	10051.0	-861483.0
16	16	6	41	965	1.0	-5490633.0	10973.0	-861032.0
16	16	6	41	966	2.0	-6330897.0	10744.0	-861202.0
16	16	6	41	966	3.0	-6802901.0	8341.0	-860991.0
16	16	6	41	966	4.0	-6831057.0	6709.0	-860969.0
16	16	6	41	967	5.0	-6413104.0	6218.0	-861069.0
16	16	6	41	967	6.0	-5706167.0	8238.0	-860977.0
16	16	6	41	967	7.0	-4906653.0	9605.0	-861299.0
16	16	6	41	983	8.0	-4054563.0	10373.0	-861151.0
16	16	6	41	983	9.0	-3211557.0	10220.0	-861638.0
16	16	6	41	984	10.0	-2521477.0	9538.0	-861454.0
16	16	6	41	984	11.0	-2126504.0	6993.0	-861801.0
16	16	6	41	984	12.0	-2062116.0	6510.0	-861523.0
16	16	6	41	985	13.0	-2259666.0	8059.0	-861817.0
16	16	6	41	985	14.0	-2698256.0	8731.0	-861534.0
16	16	6	41	986	15.0	-3395643.0	9474.0	-861521.0
16	16	6	41	986	16.0	-4253897.0	10371.0	-861389.0
16	16	6	41	986	17.0	-5159254.0	10783.0	-861058.0
16	16	6	41	987	18.0	-5987312.0	8594.0	-861028.0
16	16	6	42	3	19.0	-6620922.0	6651.0	-860882.0
16	16	6	42	3	20.0	-7025767.0	6680.0	-861342.0
16	16	6	42	3	21.0	-7238532.0	8224.0	-860997.0
16	16	6	42	4	22.0	-7305446.0	9206.0	-861335.0
16	16	6	42	4	23.0	-7262184.0	9456.0	-860975.0
16	16	6	42	4	24.0	-7149881.0	9760.0	-861232.0
16	16	6	42	5	25.0	-7014308.0	9111.0	-860939.0
16	16	6	42	23	26.0	-6894204.0	6632.0	-861189.0
16	16	6	42	24	27.0	-6749683.0	6079.0	-861112.0
16	16	6	42	53	28.0	-6523622.0	8311.0	-861359.0
16	16	6	42	53	29.0	-6198368.0	9368.0	-861561.0
16	16	6	42	54	30.0	-5839162.0	10292.0	-861493.0
16	16	6	42	54	31.0	-5487392.0	11060.0	-861850.0
16	16	6	42	54	32.0	-5133685.0	10672.0	-861582.0
16	16	6	42	55	33.0	-4784349.0	10154.0	-861818.0
16	16	6	42	55	34.0	-4478067.0	10588.0	-861481.0
16	16	6	42	55	35.0	-4156703.0	10263.0	-861821.0
16	16	6	42	55	36.0	-3910641.0	9859.0	-861502.0
16	16	6	42	56	37.0	-3756231.0	9856.0	-861911.0
16	16	6	42	56	38.0	-3600788.0	10028.0	-861791.0
16	16	6	42	56	39.0	-3433942.0	9901.0	-861601.0
16	16	6	42	56	40.0	-3248357.0	8095.0	-861608.0
16	16	6	42	57	41.0	-3066088.0	5565.0	-861656.0
16	16	6	42	57	42.0	-2900612.0	4417.0	-861569.0
16	16	6	42	57	43.0	-2802396.0	3806.0	-861876.0
16	16	6	42	58	44.0	-2813148.0	3502.0	-861750.0
16	16	6	42	58	45.0	-2904080.0	3096.0	-861946.0
16	16	6	42	58	46.0	-3055050.0	3333.0	-861921.0
16	16	6	42	58	47.0	-3256022.0	5288.0	-861782.0
16	16	6	42	59	48.0	-3487128.0	4779.0	-861879.0
16	16	6	42	59	49.0	-3715647.0	5931.0	-861642.0
16	16	6	42	59	50.0	-3896160.0	6786.0	-861943.0
16	16	6	42	59	51.0	-4013147.0	7795.0	-861591.0
16	16	6	42	82	52.0	-4080281.0	8637.0	-861852.0
16	16	6	42	83	53.0	-4071871.0	8686.0	-861679.0
16	16	6	42	83	54.0	-3970012.0	8995.0	-861945.0
16	16	6	42	84	55.0	-3837771.0	7644.0	-861939.0
16	16	6	42	84	56.0	-3651911.0	5403.0	-862003.0
16	16	6	42	84	57.0	-3388497.0	4306.0	-862209.0
16	16	6	42	85	58.0	-3044593.0	4308.0	-861969.0
16	16	6	42	85	59.0	-2671264.0	6289.0	-862364.0
16	16	6	42	85	60.0	-2279710.0	7328.0	-862001.0
16	16	6	42	86	61.0	-1940053.0	7583.0	-862281.0
16	16	6	42	86	62.0	-1594011.0	7234.0	-862239.0
16	16	6	42	87	63.0	-1287859.0	5606.0	-862492.0
16	16	6	42	87	64.0	-1007947.0	4781.0	-862396.0
16	16	6	42	87	65.0	-740936.0	6674.0	-862524.0
16	16	6	42	87	66.0	-447590.0	7113.0	-862242.0
16	16	6	42	88	67.0	-132115.0	6826.0	-862476.0
16	16	6	42	112	68.0	169560.0	6734.0	-862062.0
16	16	6	42	113	69.0	463145.0	7358.0	-862419.0
16	16	6	42	113	70.0	754346.0	6433.0	-862236.0
16	16	6	42	113	71.0	1026470.0	4526.0	-862501.0
16	16	6	42	114	72.0	1194230.0	4013.0	-862487.0
16	16	6	42	114	73.0	1276319.0	5986.0	-862459.0
16	16	6	42	114	74.0	1351432.0	7058.0	-862704.0
16	16	6	42	115	75.0	1447983.0	7896.0	-862542.0
16	16	6	42	115	76.0	1486872.0	8833.0	-862819.0
16	16	6	42	115	77.0	1426893.0	9021.0	-862512.0
16	16	6	42	116	78.0	1306288.0	7694.0	-863062.0
16	16	6	42	144	79.0	1186837.0	7083.0	-862826.0
16	16	6	42	146	80.0	1026653.0	8034.0	-863147.0
16	16	6	42	147	81.0	826588.0	10213.0	-862870.0
16	16	6	42	148	82.0	658700.0	11009.0	-862942.0
16	16	6	42	149	83.0	527086.0	12008.0	-862984.0
16	16	6	42	151	84.0	252225.0	13837.0	-863077.0
16	16	6	42	152	85.0	-32359.0	15481.0	-862889.0
16	16	6	42	153	86.0	-316264.0	16757.0	-863059.0
16	16	6	42	154	87.0	-574443.0	18087.0	-862888.0
16	16	6	42	156	88.0	-784184.0	19836.0	-862796.0
16	16	6	42	158	89.0	-1028808.0	21991.0	-862711.0
16	16	6	42	160	90.0	-1249579.0	23752.0	-862594.0
16	16	6	42	162	91.0	-1568711.0	25599.0	-862724.0
16	16	6	42	163	92.0	-1864173.0	27719.0	-862551.0
16	16	6	42	165	93.0	-2003552.0	28136.0	-862823.0
16	16	6	42	167	94.0	-1806149.0	28804.0	-862546.0
16	16	6	42	168	95.0	-1753864.0	30709.0	-862844.0
16	16	6	42	169	96.0	-1609259.0	33168.0	-862565.0
16	16	6	42	170	97.0	-1396894.0	35526.0	-862904.0
16	16	6	42	171	98.0	-1252439.0	38180.0	-862837.0
16	16	6	42	172	99.0	-1065657.0	42496.0	-862766.0
16	16	6	42	173	100.0	-953518.0	44731.0	-862845.0
16	16	6	42	174	101.0	-900431.0	47598.0	-862614.0
16	16	6	42	175	102.0	-668264.0	51269.0	-862836.0
16	16	6	42	176	103.0	-499677.0	54049.0	-862469.0
16	16	6	42	176	104.0	-118566.0	55891.0	-862823.0
16	16	6	42	177	105.0	483057.0	57707.0	-862363.0
16	16	6	42	178	106.0	938964.0	59850.0	-862670.0
16	16	6	42	178	107.0	1035039.0	61279.0	-862620.0
16	16	6	42	179	108.0	1391528.0	60828.0	-863084.0
16	16	6	42	179	109.0	1884042.0	60269.0	-862679.0
16	16	6	42	180	110.0	2069281.0	60595.0	-862841.0
16	16	6	42	180	111.0	2130690.0	62820.0	-862556.0
16	16	6	42	181	112.0	2445188.0	64863.0	-862843.0
16	16	6	42	182	113.0	2839153.0	66117.0	-862873.0
16	16	6	42	182	114.0	2832099.0	66480.0	-862846.0
16	16	6	42	183	115.0	2724840.0	64795.0	-862827.0
16	16	6	42	190	116.0	2923510.0	61864.0	-862559.0
16	16	6	42	190	117.0	2834644.0	61315.0	-862820.0
16	16	6	42	191	118.0	2759168.0	63293.0	-862507.0
16	16	6	42	191	119.0	2823809.0	63693.0	-862686.0
16	16	6	42	192	120.0	3014394.0	62978.0	-862354.0
16	16	6	42	192	121.0	3089533.0	62131.0	-862603.0
16	16	6	42	193	122.0	2950008.0	60781.0	-862447.0
16	16	6	42	218	123.0	2844469.0	56627.0	-862689.0
16	16	6	42	219	124.0	2965158.0	53553.0	-862644.0
16	16	6	42	219	125.0	2738526.0	53138.0	-862484.0
16	16	6	42	219	126.0	2474488.0	52940.0	-862499.0
16	16	6	42	220	127.0	2663873.0	51401.0	-862120.0
16	16	6	42	220	128.0	2565786.0	50096.0	-862341.0
16	16	6	42	221	129.0	2269720.0	48146.0	-862297.0
16	16	6	42	221	130.0	1964541.0	44702.0	-862506.0
16	16	6	42	221	131.0	1610993.0	40071.0	-862019.0
16	16	6	42	222	132.0	1435402.0	37164.0	-862399.0
16	16	6	42	222	133.0	1126008.0	36293.0	-862037.0
16	16	6	42	247	134.0	921958.0	34903.0	-862369.0
16	16	6	42	247	135.0	1058534.0	32389.0	-862176.0
16	16	6	42	247	136.0	1141101.0	30955.0	-862288.0
16	16	6	42	248	137.0	901035.0	28893.0	-862179.0
16	16	6	42	248	138.0	930283.0	24578.0	-862242.0
16	16	6	42	248	139.0	1118333.0	21352.0	-862494.0
16	16	6	42	249	140.0	647241.0	19671.0	-862239.0
16	16	6	42	249	141.0	896106.0	17846.0	-862417.0
16	16	6	42	249	142.0	948935.0	16063.0	-862123.0
16	16	6	42	250	143.0	370332.0	14189.0	-862401.0
16	16	6	42	250	144.0	191837.0	11936.0	-862119.0
16	16	6	42	250	145.0	301549.0	8586.0	-862547.0
16	16	6	42	274	146.0	583298.0	4814.0	-862172.0
16	16	6	42	275	147.0	1104669.0	2464.0	-862420.0
16	16	6	42	275	148.0	1553099.0	2466.0	-862448.0
16	16	6	42	275	149.0	1760214.0	1854.0	-862196.0
16	16	6	42	276	150.0	2238586.0	834.0	-862413.0
16	16	6	42	276	151.0	2493496.0	-810.0	-862434.0
16	16	6	42	276	152.0	2720331.0	-2547.0	-862431.0
16	16	6	42	277	153.0	3262495.0	-6721.0	-862240.0
16	16	6	42	277	154.0	3331575.0	-9592.0	-862611.0
16	16	6	42	277	155.0	3204636.0	-9713.0	-862347.0
16	16	6	42	277	156.0	3402428.0	-9544.0	-862708.0
16	16	6	42	278	157.0	3398910.0	-9617.0	-862395.0
16	16	6	42	278	158.0	3689674.0	-10554.0	-862775.0
16	16	6	42	278	159.0	4031663.0	-11684.0	-862562.0
16	16	6	42	279	160.0	4130645.0	-14014.0	-862826.0
16	16	6	42	279	161.0	4079829.0	-17212.0	-862854.0
16	16	6	42	279	162.0	3890288.0	-19121.0	-862663.0
16	16	6	42	279	163.0	3916523.0	-18647.0	-862744.0
16	16	6	42	280	164.0	4215404.0	-18561.0	-862479.0
16	16	6	42	303	165.0	4101053.0	-18811.0	-862694.0
16	16	6	42	303	166.0	3817049.0	-19648.0	-862364.0
16	16	6	42	304	167.0	3747528.0	-20841.0	-862867.0
16	16	6	42	304	168.0	3459848.0	-23086.0	-862541.0
16	16	6	42	304	169.0	3702086.0	-25182.0	-862968.0
16	16	6	42	304	170.0	3701161.0	-24214.0	-862885.0
16	16	6	42	305	171.0	3451409.0	-23126.0	-863034.0
16	16	6	42	305	172.0	3296343.0	-22816.0	-863052.0
16	16	6	42	306	173.0	3418251.0	-22407.0	-862986.0
16	16	6	42	306	174.0	3564239.0	-22791.0	-863138.0
16	16	6	42	306	175.0	3973323.0	-24627.0	-862901.0
16	16	6	42	330	176.0	4097063.0	-27524.0	-863141.0
16	16	6	42	331	177.0	4111372.0	-28222.0	-862723.0
16	16	6	42	331	178.0	4362618.0	-26550.0	-863005.0
16	16	6	42	332	179.0	4330411.0	-25755.0	-862624.0
16	16	6	42	332	180.0	4517565.0	-25547.0	-862753.0
16	16	6	42	332	181.0	4801371.0	-25547.0	-862586.0
16	16	6	42	332	182.0	4552902.0	-25678.0	-862704.0
16	16	6	42	333	183.0	4247180.0	-27647.0	-862808.0
16	16	6	42	333	184.0	4340904.0	-28950.0	-862681.0
16	16	6	42	333	185.0	4164966.0	-26791.0	-862863.0
16	16	6	42	334	186.0	3891011.0	-25267.0	-862554.0
16	16	6	42	334	187.0	3805168.0	-24693.0	-862691.0
16	16	6	42	334	188.0	3620111.0	-24299.0	-862372.0
16	16	6	42	335	189.0	3221033.0	-24679.0	-862587.0
16	16	6	42	358	190.0	2947349.0	-26694.0	-862166.0
16	16	6	42	358	191.0	2631776.0	-29267.0	-862391.0
16	16	6	42	359	192.0	2088318.0	-29668.0	-862045.0
16	16	6	42	359	193.0	1870526.0	-27928.0	-862277.0
16	16	6	42	359	194.0	1805161.0	-26769.0	-862116.0
16	16	6	42	359	195.0	1617516.0	-26520.0	-861799.0
16	16	6	42	360	196.0	1394088.0	-26410.0	-861804.0
16	16	6	42	360	197.0	1336314.0	-26971.0	-861927.0
16	16	6	42	360	198.0	1524031.0	-29365.0	-862039.0
16	16	6	42	361	199.0	1392804.0	-30961.0	-861908.0
16	16	6	42	361	200.0	1403668.0	-30982.0	-862082.0
16	16	6	42	361	201.0	1728796.0	-29127.0	-861801.0
16	16	6	42	362	202.0	2112461.0	-27176.0	-862161.0
16	16	6	42	362	203.0	2362006.0	-26151.0	-861968.0
16	16	6	42	362	204.0	2692871.0	-26083.0	-862257.0
16	16	6	42	362	205.0	3102660.0	-27281.0	-861979.0
16	16	6	42	385	206.0	3650581.0	-29019.0	-862352.0
16	16	6	42	386	207.0	4113837.0	-28263.0	-862314.0
16	16	6	42	386	208.0	4539218.0	-25821.0	-862412.0
16	16	6	42	387	209.0	4998951.0	-24916.0	-862573.0
16	16	6	42	387	210.0	5299646.0	-25044.0	-862410.0
16	16	6	42	387	211.0	5445179.0	-24736.0	-862694.0
16	16	6	42	387	212.0	5435741.0	-24744.0	-862369.0
16	16	6	42	388	213.0	5242745.0	-27265.0	-862883.0
16	16	6	42	388	214.0	4959052.0	-27740.0	-862490.0
16	16	6	42	388	215.0	4635868.0	-25339.0	-862614.0
16	16	6	42	389	216.0	4315802.0	-23644.0	-862299.0
16	16	6	42	389	217.0	3968948.0	-22199.0	-862461.0
16	16	6	42	389	218.0	3638254.0	-20929.0	-862282.0
16	16	6	42	390	219.0	3404369.0	-20010.0	-862366.0
16	16	6	42	390	220.0	3269483.0	-21419.0	-862454.0
16	16	6	42	412	221.0	3165571.0	-23514.0	-862323.0
16	16	6	42	412	222.0	3248451.0	-23551.0	-862486.0
16	16	6	42	412	223.0	3497631.0	-21347.0	-862201.0
16	16	6	42	413	224.0	3747842.0	-19329.0	-862598.0
16	16	6	42	413	225.0	4023273.0	-18124.0	-862317.0
16	16	6	42	413	226.0	4302518.0	-17124.0	-862684.0
16	16	6	42	414	227.0	4550011.0	-17151.0	-862435.0
16	16	6	42	439	228.0	4787002.0	-18884.0	-862591.0
16	16	6	42	440	229.0	4948677.0	-19245.0	-862629.0
16	16	6	42	440	230.0	5108006.0	-17307.0	-862582.0
16	16	6	42	440	231.0	5128296.0	-15680.0	-862834.0
16	16	6	42	441	232.0	5156588.0	-14260.0	-862666.0
16	16	6	42	441	233.0	5192936.0	-13662.0	-862983.0
16	16	6	42	441	234.0	5118738.0	-13227.0	-862606.0
16	16	6	42	442	235.0	5004303.0	-14500.0	-862926.0
16	16	6	42	442	236.0	4848531.0	-14687.0	-862526.0
16	16	6	42	442	237.0	4652726.0	-12459.0	-862877.0
16	16	6	42	443	238.0	4501608.0	-10967.0	-862626.0
16	16	6	42	443	239.0	4237663.0	-10039.0	-862716.0
16	16	6	42	443	240.0	3912912.0	-8819.0	-862564.0
16	16	6	42	444	241.0	3533567.0	-7764.0	-862739.0
16	16	6	42	444	242.0	3154288.0	-7476.0	-862374.0
16	16	6	42	444	243.0	2778849.0	-10356.0	-862329.0
16	16	6	42	445	244.0	2415956.0	-11540.0	-862212.0
16	16	6	42	467	245.0	2052783.0	-11740.0	-862120.0
16	16	6	42	467	246.0	1731097.0	-11566.0	-862129.0
16	16	6	42	468	247.0	1429909.0	-9126.0	-861913.0
16	16	6	42	468	248.0	1211964.0	-7846.0	-862173.0
16	16	6	42	468	249.0	1044648.0	-7389.0	-861820.0
16	16	6	42	469	250.0	947301.0	-8104.0	-861997.0
16	16	6	42	469	251.0	930136.0	-8884.0	-861763.0
16	16	6	42	469	252.0	947884.0	-6944.0	-862017.0
16	16	6	42	469	253.0	1026995.0	-5531.0	-861773.0
16	16	6	42	470	254.0	1178954.0	-4979.0	-861841.0
16	16	6	42	470	255.0	1340426.0	-4566.0	-861754.0
16	16	6	42	470	0.0	1529893.0	-4266.0	-861779.0
16	16	6	42	471	1.0	1749189.0	-4148.0	-861941.0
