16	14	51	58	962	107.0	169546.0	-2673.0	-5703501.0
16	14	51	58	963	108.0	215909.0	-2838.0	-5702745.0
16	14	51	58	963	109.0	245896.0	-2686.0	-5702241.0
16	14	51	58	964	110.0	208104.0	-2641.0	-5703143.0
16	14	51	58	964	111.0	101973.0	-2572.0	-5703387.0
16	14	51	58	982	112.0	-45056.0	-2842.0	-5702570.0
16	14	51	58	982	113.0	-203077.0	-2839.0	-5701934.0
16	14	51	58	983	114.0	-330346.0	-2197.0	-5702808.0
16	14	51	58	984	115.0	-395881.0	-2343.0	-5703606.0
16	14	51	58	985	116.0	-426572.0	-2673.0	-5702903.0
16	14	51	58	985	117.0	-447468.0	-1891.0	-5702200.0
16	14	51	58	986	118.0	-471887.0	-2113.0	-5702711.0
16	14	51	58	986	119.0	-473092.0	-2689.0	-5703576.0
16	14	51	59	20	120.0	-425917.0	-2830.0	-5702913.0
16	14	51	59	21	121.0	-325662.0	-1769.0	-5702176.0
16	14	51	59	22	122.0	-225777.0	-1941.0	-5702239.0
16	14	51	59	23	123.0	-147524.0	-2116.0	-5703467.0
16	14	51	59	24	124.0	-94476.0	-1785.0	-5703034.0
16	14	51	59	25	125.0	-58007.0	-792.0	-5702277.0
16	14	51	59	25	126.0	-38357.0	-1089.0	-5702658.0
16	14	51	59	26	127.0	-50026.0	-1823.0	-5703581.0
16	14	51	59	27	128.0	-61819.0	-1324.0	-5702979.0
16	14	51	59	28	129.0	-29339.0	-1018.0	-5702232.0
16	14	51	59	29	130.0	64973.0	-809.0	-5702540.0
16	14	51	59	30	131.0	208058.0	-839.0	-5703524.0
16	14	51	59	30	132.0	387541.0	261.0	-5703019.0
16	14	51	59	31	133.0	699579.0	468.0	-5702220.0
16	14	51	59	42	134.0	1078505.0	-105.0	-5702156.0
16	14	51	59	128	135.0	1368473.0	-682.0	-5703501.0
16	14	51	59	129	136.0	1162502.0	284.0	-5703272.0
16	14	51	59	151	137.0	394502.0	616.0	-5702383.0
16	14	51	59	152	138.0	-628838.0	253.0	-5702274.0
16	14	51	59	152	139.0	-1789580.0	472.0	-5703472.0
16	14	51	59	153	140.0	-2677602.0	388.0	-5703080.0
16	14	51	59	153	141.0	-3099342.0	539.0	-5702207.0
16	14	51	59	154	142.0	-2866320.0	752.0	-5701778.0
16	14	51	59	154	143.0	-2012407.0	750.0	-5702829.0
16	14	51	59	155	144.0	-834447.0	743.0	-5703089.0
16	14	51	59	155	145.0	283923.0	1051.0	-5702397.0
16	14	51	59	156	146.0	1124254.0	1455.0	-5702250.0
16	14	51	59	156	147.0	1834686.0	1686.0	-5703497.0
16	14	51	59	157	148.0	2563969.0	2244.0	-5703419.0
16	14	51	59	157	149.0	3134770.0	2004.0	-5702687.0
16	14	51	59	157	193.0	1107356.0	5299.0	-5704621.0
16	14	51	59	158	194.0	1174493.0	4568.0	-5703866.0
16	14	51	59	159	195.0	1115181.0	4129.0	-5703172.0
16	14	51	59	159	196.0	922176.0	4223.0	-5703632.0
16	14	51	59	159	197.0	768698.0	3904.0	-5704475.0
16	14	51	59	160	198.0	746830.0	3740.0	-5703801.0
16	14	51	59	180	199.0	692868.0	3591.0	-5703097.0
16	14	51	59	181	200.0	481603.0	4101.0	-5703614.0
16	14	51	59	181	201.0	260881.0	5123.0	-5704213.0
16	14	51	59	181	202.0	115351.0	5646.0	-5703510.0
16	14	51	59	182	203.0	96754.0	6066.0	-5702804.0
16	14	51	59	182	204.0	163753.0	5822.0	-5703455.0
16	14	51	59	182	205.0	202757.0	5414.0	-5704185.0
16	14	51	59	217	206.0	146037.0	5013.0	-5703549.0
16	14	51	59	217	207.0	187303.0	4569.0	-5702869.0
16	14	51	59	263	208.0	214886.0	4468.0	-5703734.0
16	14	51	59	263	209.0	256178.0	4558.0	-5704396.0
16	14	51	59	263	210.0	552607.0	4930.0	-5703752.0
16	14	51	59	264	211.0	1468542.0	5191.0	-5703007.0
16	14	51	59	284	212.0	1989091.0	5450.0	-5703134.0
16	14	51	59	285	213.0	2476535.0	6020.0	-5704272.0
16	14	51	59	285	215.0	2656969.0	6590.0	-5703059.0
16	14	51	59	285	216.0	1908534.0	5811.0	-5703221.0
16	14	51	59	286	217.0	1094684.0	4799.0	-5704289.0
16	14	51	59	316	218.0	384275.0	4536.0	-5703761.0
16	14	51	59	317	219.0	-219847.0	4888.0	-5702917.0
16	14	51	59	317	220.0	-755045.0	5522.0	-5703301.0
16	14	51	59	318	221.0	-1146734.0	5207.0	-5704169.0
16	14	51	59	318	238.0	437192.0	13889.0	-5703949.0
16	14	51	59	319	239.0	327017.0	14326.0	-5703179.0
16	14	51	59	319	4.0	-53405.0	30710.0	-5702699.0
16	14	51	59	319	5.0	-36991.0	30699.0	-5702835.0
16	14	51	59	320	6.0	11657.0	30405.0	-5704090.0
16	14	51	59	320	7.0	82638.0	30570.0	-5703717.0
16	14	51	59	320	8.0	171423.0	30826.0	-5702942.0
16	14	51	59	321	9.0	249631.0	31548.0	-5702838.0
16	14	51	59	321	10.0	322861.0	31335.0	-5704207.0
16	14	51	59	321	11.0	379453.0	30911.0	-5703987.0
16	14	51	59	322	12.0	427658.0	30664.0	-5703186.0
16	14	51	59	322	27.0	887320.0	24121.0	-5704477.0
16	14	51	59	342	28.0	1637673.0	22684.0	-5703839.0
16	14	51	59	342	29.0	1818281.0	21666.0	-5703282.0
16	14	51	59	343	30.0	1567823.0	21041.0	-5704582.0
16	14	51	59	343	31.0	1013492.0	20547.0	-5704918.0
16	14	51	59	343	32.0	344840.0	19389.0	-5704142.0
16	14	51	59	361	33.0	-209606.0	18786.0	-5703369.0
16	14	51	59	361	34.0	-540822.0	17977.0	-5704183.0
16	14	51	59	361	35.0	-687019.0	17692.0	-5704777.0
16	14	51	59	361	36.0	-712752.0	17097.0	-5704122.0
16	14	51	59	362	37.0	-665734.0	16220.0	-5703327.0
16	14	51	59	362	38.0	-552417.0	15629.0	-5703251.0
16	14	51	59	362	39.0	-432471.0	14329.0	-5704622.0
16	14	51	59	362	40.0	-311867.0	13726.0	-5704451.0
16	14	51	59	363	41.0	-208709.0	12859.0	-5703632.0
16	14	51	59	363	42.0	-133704.0	11506.0	-5703729.0
16	14	51	59	395	43.0	-72668.0	10781.0	-5704952.0
16	14	51	59	412	44.0	-42711.0	10324.0	-5704581.0
16	14	51	59	413	45.0	-100328.0	9779.0	-5703782.0
16	14	51	59	413	46.0	-148104.0	8429.0	-5703665.0
16	14	51	59	414	47.0	-196536.0	7514.0	-5704911.0
16	14	51	59	414	49.0	-364357.0	6438.0	-5703859.0
16	14	51	59	415	50.0	-328757.0	5469.0	-5703719.0
16	14	51	59	441	51.0	-292552.0	4008.0	-5704963.0
16	14	51	59	442	52.0	-331388.0	3534.0	-5704721.0
16	14	51	59	463	53.0	-337721.0	3472.0	-5703939.0
16	14	51	59	463	54.0	-291513.0	3782.0	-5703344.0
16	14	51	59	463	55.0	-242672.0	3393.0	-5704252.0
16	14	51	59	464	56.0	-249192.0	3256.0	-5704630.0
16	14	51	59	464	57.0	-301961.0	2733.0	-5703880.0
16	14	51	59	485	58.0	-318368.0	1466.0	-5703307.0
16	14	51	59	486	72.0	2077698.0	-5851.0	-5705072.0
16	14	51	59	500	73.0	2769528.0	-7569.0	-5704596.0
16	14	51	59	500	74.0	3188728.0	-8762.0	-5703813.0
16	14	51	59	500	75.0	3177074.0	-7510.0	-5703929.0
16	14	51	59	501	76.0	2746726.0	-6366.0	-5705129.0
16	14	51	59	501	77.0	1907793.0	-6749.0	-5704671.0
16	14	51	59	501	78.0	953256.0	-7519.0	-5703758.0
16	14	51	59	501	94.0	1033046.0	-13551.0	-5703976.0
16	14	51	59	502	95.0	877063.0	-13784.0	-5703547.0
16	14	51	59	502	96.0	483288.0	-14052.0	-5704841.0
16	14	51	59	502	97.0	-13894.0	-13953.0	-5704867.0
16	14	51	59	502	98.0	-564682.0	-13309.0	-5704070.0
16	14	51	59	503	99.0	-968490.0	-13206.0	-5703380.0
16	14	51	59	503	100.0	-1103632.0	-13534.0	-5704436.0
16	14	51	59	503	117.0	994795.0	-10118.0	-5705122.0
16	14	51	59	503	118.0	488539.0	-10771.0	-5704784.0
16	14	51	59	504	119.0	-373909.0	-10667.0	-5703895.0
16	14	51	59	504	120.0	-1113479.0	-10161.0	-5703802.0
16	14	51	59	504	121.0	-1426233.0	-9714.0	-5705079.0
16	14	51	59	504	122.0	-1397191.0	-9242.0	-5704760.0
16	14	51	59	530	123.0	-1224949.0	-8831.0	-5704027.0
16	14	51	59	545	124.0	-1034091.0	-8291.0	-5704294.0
16	14	51	59	578	125.0	-792185.0	-7350.0	-5705477.0
16	14	51	59	579	126.0	-522987.0	-6881.0	-5705039.0
16	14	51	59	579	127.0	-337204.0	-7000.0	-5704290.0
16	14	51	59	580	128.0	-198928.0	-7017.0	-5704041.0
16	14	51	59	580	129.0	-67006.0	-6832.0	-5705322.0
16	14	51	59	581	130.0	86556.0	-6907.0	-5705152.0
16	14	51	59	581	131.0	501024.0	-6875.0	-5704397.0
16	14	51	59	582	132.0	1109888.0	-6914.0	-5704046.0
16	14	51	59	582	133.0	1358773.0	-6689.0	-5705319.0
16	14	51	59	583	134.0	1259792.0	-6556.0	-5705206.0
16	14	51	59	583	135.0	793378.0	-6116.0	-5704444.0
16	14	51	59	584	136.0	145157.0	-5264.0	-5703864.0
16	14	51	59	584	137.0	-384572.0	-4735.0	-5705106.0
16	14	51	59	585	139.0	-674729.0	-4322.0	-5704519.0
16	14	51	59	595	140.0	-657566.0	-4663.0	-5704255.0
16	14	51	59	596	162.0	-165071.0	-2981.0	-5705569.0
16	14	51	59	596	163.0	-122646.0	-3528.0	-5704890.0
16	14	51	59	596	164.0	-72428.0	-3087.0	-5704096.0
16	14	51	59	597	165.0	-13422.0	-3087.0	-5703809.0
16	14	51	59	597	166.0	74729.0	-2746.0	-5705136.0
16	14	51	59	597	167.0	185698.0	-2306.0	-5704971.0
16	14	51	59	620	168.0	465149.0	-2069.0	-5704256.0
16	14	51	59	620	169.0	913161.0	-1797.0	-5703845.0
16	14	51	59	634	170.0	921398.0	-1028.0	-5705154.0
16	14	51	59	634	171.0	615742.0	-1287.0	-5705173.0
16	14	51	59	635	172.0	156216.0	-1072.0	-5704389.0
16	14	51	59	635	173.0	-341684.0	-1629.0	-5703963.0
16	14	51	59	635	174.0	-705382.0	-1803.0	-5705160.0
16	14	51	59	635	175.0	-840494.0	-1953.0	-5705019.0
16	14	51	59	636	176.0	-796539.0	-1822.0	-5704311.0
16	14	51	59	636	177.0	-687111.0	-2161.0	-5703765.0
16	14	51	59	636	178.0	-572521.0	-2153.0	-5704936.0
16	14	51	59	636	179.0	-448596.0	-2756.0	-5705018.0
16	14	51	59	637	180.0	-308317.0	-2300.0	-5704358.0
16	14	51	59	637	181.0	-159238.0	-2664.0	-5703697.0
16	14	51	59	637	182.0	-24994.0	-2834.0	-5704937.0
16	14	51	59	638	184.0	170518.0	-2166.0	-5704934.0
16	14	51	59	638	185.0	234675.0	-2700.0	-5704117.0
16	14	51	59	638	186.0	291094.0	-3062.0	-5704292.0
16	14	51	59	639	187.0	339493.0	-2976.0	-5705334.0
16	14	51	59	639	188.0	390858.0	-3157.0	-5704894.0
16	14	51	59	639	189.0	432715.0	-3410.0	-5704102.0
16	14	51	59	667	190.0	481702.0	-3424.0	-5704551.0
16	14	51	59	667	191.0	613496.0	-3506.0	-5705504.0
16	14	51	59	667	192.0	949095.0	-2902.0	-5704974.0
16	14	51	59	668	193.0	1246289.0	-2526.0	-5704221.0
16	14	51	59	668	194.0	1215469.0	-2391.0	-5704397.0
16	14	51	59	668	195.0	855049.0	-2551.0	-5705412.0
16	14	51	59	678	196.0	289860.0	-3083.0	-5704867.0
16	14	51	59	679	197.0	-241724.0	-3402.0	-5704076.0
16	14	51	59	679	198.0	-567392.0	-3461.0	-5703891.0
16	14	51	59	679	199.0	-681640.0	-3353.0	-5705207.0
16	14	51	59	680	200.0	-651686.0	-3638.0	-5704958.0
16	14	51	59	680	201.0	-550116.0	-3627.0	-5704234.0
16	14	51	59	680	202.0	-429961.0	-3587.0	-5704083.0
16	14	51	59	681	203.0	-324674.0	-3325.0	-5705551.0
16	14	51	59	681	204.0	-214873.0	-3017.0	-5705327.0
16	14	51	59	681	207.0	599163.0	-2713.0	-5705509.0
16	14	51	59	682	208.0	827933.0	-3528.0	-5705570.0
16	14	51	59	682	209.0	780890.0	-2973.0	-5704834.0
16	14	51	59	682	210.0	433693.0	-2866.0	-5704564.0
16	14	51	59	682	211.0	-43831.0	-2716.0	-5705789.0
16	14	51	59	698	212.0	-420381.0	-2774.0	-5705397.0
16	14	51	59	717	213.0	-570199.0	-2481.0	-5704681.0
16	14	51	59	718	214.0	-521294.0	-1888.0	-5704017.0
16	14	51	59	718	215.0	-370032.0	-1279.0	-5705035.0
16	14	51	59	718	216.0	-208174.0	-1156.0	-5705369.0
16	14	51	59	718	217.0	-80781.0	-1304.0	-5704709.0
16	14	51	59	719	218.0	-6409.0	-1767.0	-5704306.0
16	14	51	59	720	219.0	24802.0	-1646.0	-5705659.0
16	14	51	59	720	220.0	52968.0	-1855.0	-5705541.0
16	14	51	59	720	221.0	89510.0	-2067.0	-5704857.0
16	14	51	59	720	222.0	150859.0	-2020.0	-5704422.0
16	14	51	59	721	223.0	402263.0	-2171.0	-5705420.0
16	14	51	59	721	224.0	723703.0	-1593.0	-5705128.0
16	14	51	59	721	225.0	759130.0	-1271.0	-5704438.0
16	14	51	59	722	226.0	544744.0	-1116.0	-5704001.0
16	14	51	59	722	227.0	90162.0	-718.0	-5704729.0
16	14	51	59	722	229.0	-767918.0	-995.0	-5703681.0
16	14	51	59	756	230.0	-854209.0	-1609.0	-5704681.0
16	14	51	59	756	231.0	-779789.0	-1926.0	-5705009.0
16	14	51	59	757	232.0	-656614.0	-1617.0	-5704196.0
16	14	51	59	763	233.0	-521950.0	-1637.0	-5703689.0
16	14	51	59	763	234.0	-376497.0	-1602.0	-5704743.0
16	14	51	59	785	235.0	-179632.0	-668.0	-5705299.0
16	14	51	59	785	236.0	199904.0	610.0	-5704582.0
16	14	51	59	785	237.0	886054.0	961.0	-5704063.0
16	14	51	59	786	238.0	1280700.0	575.0	-5704861.0
16	14	51	59	786	239.0	1199234.0	384.0	-5705584.0
16	14	51	59	787	240.0	1063411.0	-221.0	-5704797.0
16	14	51	59	787	241.0	850611.0	-363.0	-5704191.0
16	14	51	59	787	242.0	652984.0	16.0	-5704911.0
16	14	51	59	788	243.0	468607.0	306.0	-5705371.0
16	14	51	59	788	244.0	68656.0	479.0	-5704591.0
16	14	51	59	788	251.0	-810032.0	2455.0	-5705341.0
16	14	51	59	789	252.0	99744.0	1963.0	-5704832.0
16	14	51	59	789	253.0	721611.0	1443.0	-5704177.0
16	14	51	59	789	254.0	1054501.0	1736.0	-5704557.0
16	14	51	59	790	255.0	1383384.0	1848.0	-5705544.0
16	14	51	59	790	0.0	1735306.0	1816.0	-5704972.0
16	14	51	59	790	1.0	1798941.0	2251.0	-5704260.0
16	14	51	59	805	2.0	1403560.0	2451.0	-5704209.0
16	14	51	59	805	3.0	642760.0	3091.0	-5705306.0
16	14	51	59	806	4.0	-328404.0	3933.0	-5704777.0
16	14	51	59	806	5.0	-1242044.0	3691.0	-5703928.0
16	14	51	59	806	6.0	-2008421.0	3302.0	-5703919.0
16	14	51	59	807	7.0	-2610745.0	3187.0	-5705029.0
16	14	51	59	807	8.0	-2819707.0	3266.0	-5704597.0
16	14	51	59	807	9.0	-2742748.0	3917.0	-5703799.0
16	14	51	59	807	10.0	-2500802.0	4299.0	-5703473.0
16	14	51	59	824	11.0	-1989991.0	3944.0	-5704602.0
16	14	51	59	824	12.0	-1275367.0	3669.0	-5704576.0
16	14	51	59	825	13.0	-527500.0	3457.0	-5703869.0
16	14	51	59	825	14.0	136189.0	3870.0	-5704179.0
16	14	51	59	825	15.0	664758.0	4235.0	-5705436.0
16	14	51	59	826	16.0	1031479.0	3930.0	-5705034.0
16	14	51	59	826	18.0	942821.0	4010.0	-5703698.0
16	14	51	59	826	19.0	729996.0	3326.0	-5704768.0
16	14	51	59	827	20.0	562777.0	3221.0	-5705124.0
16	14	51	59	827	21.0	408385.0	3469.0	-5704323.0
16	14	51	59	827	22.0	219824.0	3563.0	-5703824.0
16	14	51	59	827	23.0	129309.0	3769.0	-5704926.0
16	14	51	59	845	24.0	173298.0	4166.0	-5705309.0
16	14	51	59	864	25.0	205491.0	4091.0	-5704501.0
16	14	51	59	864	26.0	140513.0	4698.0	-5704149.0
16	14	51	59	865	27.0	-18414.0	4773.0	-5705279.0
16	14	51	59	865	28.0	-181343.0	4594.0	-5705183.0
16	14	51	59	865	29.0	-248667.0	4385.0	-5704346.0
16	14	51	59	865	30.0	-215502.0	4716.0	-5703745.0
16	14	51	59	866	31.0	-132478.0	5244.0	-5704589.0
16	14	51	59	866	32.0	3660.0	5307.0	-5705146.0
16	14	51	59	866	33.0	131713.0	5007.0	-5704389.0
16	14	51	59	867	34.0	243028.0	4339.0	-5703750.0
16	14	51	59	867	35.0	343966.0	4211.0	-5704429.0
16	14	51	59	867	36.0	385336.0	4388.0	-5705028.0
16	14	51	59	867	37.0	370066.0	4389.0	-5704331.0
16	14	51	59	868	38.0	320449.0	3772.0	-5703607.0
16	14	51	59	868	40.0	49611.0	4107.0	-5705042.0
16	14	51	59	868	41.0	-44068.0	3941.0	-5704455.0
16	14	51	59	869	42.0	-100296.0	2689.0	-5703757.0
16	14	51	59	869	43.0	-135974.0	2739.0	-5704440.0
16	14	51	59	869	44.0	-126487.0	3318.0	-5705439.0
16	14	51	59	870	45.0	-75884.0	3438.0	-5704791.0
16	14	51	59	870	46.0	-35777.0	3794.0	-5704057.0
16	14	51	59	891	47.0	-5157.0	4068.0	-5704641.0
16	14	51	59	913	48.0	25921.0	4011.0	-5705286.0
16	14	51	59	913	49.0	44483.0	5165.0	-5704639.0
16	14	51	59	914	50.0	44523.0	5155.0	-5703841.0
16	14	51	59	914	51.0	66008.0	4693.0	-5703640.0
16	14	51	59	915	52.0	102541.0	4716.0	-5704671.0
16	14	51	59	915	53.0	172572.0	4946.0	-5704391.0
16	14	51	59	915	54.0	249432.0	4324.0	-5703586.0
16	14	51	59	916	55.0	327019.0	4176.0	-5703719.0
16	14	51	59	916	56.0	411349.0	4329.0	-5704894.0
16	14	51	59	916	57.0	476096.0	4749.0	-5704492.0
16	14	51	59	917	58.0	497531.0	4651.0	-5703694.0
16	14	51	59	917	59.0	483436.0	5231.0	-5703372.0
16	14	51	59	918	60.0	447066.0	5348.0	-5704429.0
16	14	51	59	918	61.0	353974.0	5122.0	-5704341.0
16	14	51	59	919	63.0	166001.0	4580.0	-5703543.0
16	14	51	59	919	64.0	136948.0	3898.0	-5704814.0
16	14	51	59	919	65.0	147150.0	3501.0	-5704499.0
16	14	51	59	920	66.0	212950.0	4298.0	-5703667.0
16	14	51	59	920	67.0	294130.0	4602.0	-5703254.0
16	14	51	59	920	68.0	371729.0	4556.0	-5704512.0
16	14	51	59	936	69.0	435443.0	4573.0	-5704613.0
16	14	51	59	937	70.0	458044.0	5002.0	-5703824.0
16	14	51	59	957	71.0	447662.0	6254.0	-5703274.0
16	14	51	59	957	72.0	419463.0	6183.0	-5704375.0
16	14	51	59	958	73.0	383314.0	6222.0	-5704669.0
16	14	51	59	958	74.0	314581.0	6358.0	-5703947.0
16	14	51	59	959	75.0	210986.0	6423.0	-5703591.0
16	14	51	59	959	76.0	99531.0	6121.0	-5704905.0
16	14	51	59	959	77.0	-21061.0	6363.0	-5704856.0
16	14	51	59	959	78.0	-119192.0	6734.0	-5704089.0
16	14	51	59	960	79.0	-197532.0	7134.0	-5703521.0
16	14	51	59	960	80.0	-238858.0	7716.0	-5704690.0
16	14	51	59	960	81.0	-264882.0	8264.0	-5704976.0
16	14	51	59	960	82.0	-294699.0	8039.0	-5704229.0
16	14	51	59	961	83.0	-314007.0	8926.0	-5703507.0
16	14	51	59	961	85.0	-359841.0	9861.0	-5705033.0
16	14	51	59	961	86.0	-370347.0	10406.0	-5704387.0
16	14	51	59	961	87.0	-375798.0	10576.0	-5703587.0
16	14	51	59	961	88.0	-387461.0	11533.0	-5703912.0
16	14	51	59	962	89.0	-417543.0	12869.0	-5704946.0
16	14	51	59	962	90.0	-454346.0	13722.0	-5704427.0
16	14	51	59	962	91.0	-475132.0	14541.0	-5703702.0
16	14	51	59	981	92.0	-478350.0	15596.0	-5704192.0
16	14	51	59	982	93.0	-464834.0	16519.0	-5704907.0
16	14	51	59	982	94.0	-427454.0	17548.0	-5704318.0
16	14	51	59	983	95.0	-375105.0	18348.0	-5703558.0
16	14	51	59	999	96.0	-325852.0	19518.0	-5704204.0
16	14	51	59	999	97.0	-292997.0	20425.0	-5705085.0
16	14	51	59	999	98.0	-285514.0	20928.0	-5704502.0
16	14	52	0	0	99.0	-287482.0	21859.0	-5703649.0
16	14	52	0	0	100.0	-302027.0	22736.0	-5703314.0
16	14	52	0	0	101.0	-320439.0	23521.0	-5704509.0
16	14	52	0	0	102.0	-341964.0	24404.0	-5704449.0
16	14	52	0	1	103.0	-385009.0	25583.0	-5703644.0
16	14	52	0	1	104.0	-426955.0	26594.0	-5703409.0
16	14	52	0	1	105.0	-451072.0	27190.0	-5704670.0
16	14	52	0	1	106.0	-462855.0	27888.0	-5704514.0
16	14	52	0	2	108.0	-501868.0	28535.0	-5703453.0
16	14	52	0	2	109.0	-496428.0	28519.0	-5704639.0
16	14	52	0	2	110.0	-495250.0	28963.0	-5704477.0
16	14	52	0	2	111.0	-480993.0	29682.0	-5703702.0
16	14	52	0	3	112.0	-456379.0	29889.0	-5703375.0
16	14	52	0	3	113.0	-447904.0	29972.0	-5704694.0
16	14	52	0	26	114.0	-433309.0	30132.0	-5704660.0
16	14	52	0	46	115.0	-400546.0	30422.0	-5703855.0
16	14	52	0	47	116.0	-383267.0	31414.0	-5703237.0
16	14	52	0	47	117.0	-359335.0	31275.0	-5704408.0
16	14	52	0	74	118.0	-317896.0	31379.0	-5704896.0
16	14	52	0	74	119.0	-285115.0	30953.0	-5704179.0
16	14	52	0	75	120.0	-239868.0	30995.0	-5703439.0
16	14	52	0	75	121.0	-211434.0	30584.0	-5703846.0
16	14	52	0	76	122.0	-216462.0	30164.0	-5704997.0
16	14	52	0	76	123.0	-226163.0	29553.0	-5704497.0
16	14	52	0	76	124.0	-269786.0	29069.0	-5703823.0
16	14	52	0	96	125.0	-315076.0	28091.0	-5704638.0
16	14	52	0	97	126.0	-328969.0	28003.0	-5705018.0
16	14	52	0	97	127.0	-305574.0	27841.0	-5704354.0
16	14	52	0	97	128.0	-286439.0	27216.0	-5703558.0
16	14	52	0	98	130.0	-634982.0	26294.0	-5705024.0
16	14	52	0	98	131.0	-991312.0	25048.0	-5704419.0
16	14	52	0	98	132.0	-1287540.0	23848.0	-5703564.0
16	14	52	0	99	133.0	-1195084.0	24398.0	-5703846.0
16	14	52	0	99	153.0	-663426.0	8632.0	-5703354.0
16	14	52	0	99	154.0	-597198.0	7006.0	-5704592.0
16	14	52	0	100	155.0	-506322.0	6556.0	-5704769.0
16	14	52	0	100	156.0	-437277.0	5951.0	-5704081.0
16	14	52	0	100	157.0	-370246.0	5346.0	-5703572.0
16	14	52	0	101	158.0	-279991.0	5193.0	-5704872.0
16	14	52	0	116	159.0	-163009.0	4733.0	-5705075.0
16	14	52	0	161	160.0	-8244.0	4068.0	-5704379.0
16	14	52	0	209	161.0	189567.0	3765.0	-5703684.0
16	14	52	0	209	162.0	360356.0	3214.0	-5704659.0
16	14	52	0	210	163.0	384069.0	2201.0	-5705391.0
16	14	52	0	235	164.0	308427.0	1653.0	-5704749.0
16	14	52	0	236	165.0	225185.0	421.0	-5703920.0
16	14	52	0	236	166.0	149668.0	-66.0	-5704332.0
16	14	52	0	237	167.0	75927.0	-539.0	-5705539.0
16	14	52	0	238	168.0	46882.0	-1071.0	-5705060.0
16	14	52	0	239	169.0	80879.0	-1406.0	-5704236.0
16	14	52	0	239	170.0	162601.0	-1692.0	-5704007.0
16	14	52	0	241	171.0	255728.0	-2789.0	-5705230.0
16	14	52	0	242	172.0	335128.0	-3395.0	-5705093.0
16	14	52	0	242	173.0	403314.0	-3481.0	-5704289.0
16	14	52	0	243	175.0	451378.0	-4802.0	-5705504.0
16	14	52	0	243	198.0	-93634.0	-13782.0	-5703709.0
16	14	52	0	244	220.0	-197266.0	-11472.0	-5705611.0
16	14	52	0	245	221.0	-224055.0	-11128.0	-5704919.0
16	14	52	0	245	222.0	-224410.0	-11073.0	-5704187.0
16	14	52	0	246	223.0	-195163.0	-11134.0	-5704775.0
16	14	52	0	246	224.0	-166142.0	-11231.0	-5705638.0
16	14	52	0	247	225.0	-146263.0	-11179.0	-5704999.0
16	14	52	0	267	226.0	-156378.0	-10547.0	-5704209.0
16	14	52	0	268	227.0	-209111.0	-9549.0	-5704039.0
16	14	52	0	269	228.0	-271112.0	-9076.0	-5705150.0
16	14	52	0	269	229.0	-304459.0	-7996.0	-5704722.0
16	14	52	0	270	230.0	-280040.0	-8072.0	-5703983.0
16	14	52	0	270	231.0	-196527.0	-8754.0	-5703612.0
16	14	52	0	270	232.0	4456.0	-8263.0	-5704993.0
16	14	52	0	271	233.0	124209.0	-7894.0	-5704922.0
16	14	52	0	271	234.0	64901.0	-7897.0	-5704225.0
16	14	52	0	272	235.0	-25631.0	-8029.0	-5704493.0
16	14	52	0	272	236.0	-101772.0	-7742.0	-5705660.0
16	14	52	0	272	237.0	-141751.0	-7051.0	-5705079.0
16	14	52	0	273	238.0	-112469.0	-6959.0	-5704392.0
16	14	52	0	273	239.0	-13191.0	-7052.0	-5703850.0
16	14	52	0	274	240.0	116467.0	-6464.0	-5705121.0
16	14	52	0	274	243.0	230341.0	-5719.0	-5703869.0
16	14	52	0	275	244.0	159299.0	-6407.0	-5704719.0
16	14	52	0	275	245.0	127527.0	-6402.0	-5705124.0
16	14	52	0	276	246.0	180553.0	-6248.0	-5704481.0
16	14	52	0	276	247.0	264356.0	-5849.0	-5703770.0
16	14	52	0	276	248.0	286159.0	-4890.0	-5704753.0
16	14	52	0	296	249.0	271303.0	-4271.0	-5705516.0
16	14	52	0	297	250.0	253123.0	-3617.0	-5704893.0
16	14	52	0	297	251.0	238990.0	-2520.0	-5704136.0
16	14	52	0	298	252.0	235639.0	-2574.0	-5704683.0
16	14	52	0	299	253.0	228914.0	-2922.0	-5705486.0
16	14	52	0	300	254.0	229924.0	-2512.0	-5704904.0
16	14	52	0	301	255.0	257283.0	-2810.0	-5704259.0
16	14	52	0	301	0.0	279788.0	-3330.0	-5705364.0
16	14	52	0	302	1.0	280663.0	-3194.0	-5705752.0
16	14	52	0	303	2.0	245214.0	-2977.0	-5705039.0
16	14	52	0	304	3.0	170510.0	-2839.0	-5704229.0
16	14	52	0	304	4.0	100791.0	-2486.0	-5704220.0
16	14	52	0	304	5.0	54614.0	-2150.0	-5705635.0
16	14	52	0	313	6.0	21876.0	-1947.0	-5705288.0
16	14	52	0	313	7.0	-21620.0	-1992.0	-5704549.0
16	14	52	0	314	9.0	-75791.0	-2432.0	-5705696.0
16	14	52	0	314	10.0	-59077.0	-2897.0	-5705064.0
16	14	52	0	314	11.0	-58531.0	-2939.0	-5704343.0
16	14	52	0	315	12.0	-130400.0	-2781.0	-5704689.0
16	14	52	0	315	13.0	-244126.0	-2532.0	-5705602.0
16	14	52	0	315	14.0	-354716.0	-2261.0	-5704947.0
16	14	52	0	342	15.0	-436566.0	-2274.0	-5704195.0
16	14	52	0	343	16.0	-478444.0	-1982.0	-5704509.0
16	14	52	0	344	17.0	-486150.0	-1360.0	-5705717.0
16	14	52	0	345	18.0	-461947.0	-1556.0	-5705140.0
16	14	52	0	346	19.0	-415324.0	-2041.0	-5704409.0
16	14	52	0	347	20.0	-366224.0	-2871.0	-5704052.0
16	14	52	0	348	21.0	-312454.0	-2478.0	-5704717.0
16	14	52	0	350	22.0	-258457.0	-2398.0	-5704205.0
16	14	52	0	351	23.0	-219691.0	-2520.0	-5703792.0
16	14	52	0	352	24.0	-193382.0	-3029.0	-5705179.0
16	14	52	0	353	25.0	-132861.0	-2956.0	-5705469.0
16	14	52	0	354	26.0	-25247.0	-2727.0	-5704677.0
16	14	52	0	355	27.0	-19754.0	-3232.0	-5704292.0
16	14	52	0	355	28.0	-76659.0	-3729.0	-5705379.0
16	14	52	0	356	29.0	-128182.0	-3928.0	-5705389.0
16	14	52	0	357	31.0	-190779.0	-3589.0	-5704100.0
16	14	52	0	358	32.0	-197457.0	-3819.0	-5705234.0
16	14	52	0	358	33.0	-180986.0	-4354.0	-5705614.0
16	14	52	0	359	34.0	-143821.0	-3922.0	-5704812.0
16	14	52	0	360	35.0	-105167.0	-3551.0	-5704140.0
16	14	52	0	361	36.0	-92170.0	-3776.0	-5704346.0
16	14	52	0	362	37.0	-99436.0	-3344.0	-5705451.0
16	14	52	0	386	38.0	-116339.0	-3344.0	-5704814.0
16	14	52	0	386	39.0	-131526.0	-3224.0	-5704139.0
16	14	52	0	402	40.0	-142182.0	-2844.0	-5704331.0
16	14	52	0	403	41.0	-141938.0	-2962.0	-5705732.0
16	14	52	0	403	42.0	-124529.0	-2852.0	-5705224.0
16	14	52	0	404	43.0	-95414.0	-2935.0	-5704542.0
16	14	52	0	404	44.0	26454.0	-2867.0	-5703894.0
16	14	52	0	404	45.0	146580.0	-3441.0	-5704631.0
16	14	52	0	405	46.0	29335.0	-3319.0	-5704678.0
16	14	52	0	405	47.0	-164087.0	-2955.0	-5704106.0
16	14	52	0	406	48.0	-328692.0	-3544.0	-5705121.0
16	14	52	0	406	49.0	-466100.0	-3841.0	-5705872.0
16	14	52	0	406	50.0	-518279.0	-3854.0	-5705059.0
16	14	52	0	407	51.0	-489550.0	-3383.0	-5704359.0
16	14	52	0	407	52.0	-409554.0	-3157.0	-5704561.0
16	14	52	0	408	54.0	-186087.0	-3123.0	-5704993.0
16	14	52	0	408	55.0	-81679.0	-3602.0	-5704272.0
16	14	52	0	408	56.0	17339.0	-4272.0	-5704632.0
16	14	52	0	409	57.0	102793.0	-4530.0	-5705862.0
16	14	52	0	409	58.0	166268.0	-4351.0	-5705311.0
16	14	52	0	410	59.0	204405.0	-4426.0	-5704634.0
16	14	52	0	430	60.0	216847.0	-4326.0	-5705177.0
16	14	52	0	431	61.0	211596.0	-3691.0	-5706090.0
16	14	52	0	431	62.0	174304.0	-2922.0	-5705437.0
16	14	52	0	446	63.0	98606.0	-2091.0	-5704682.0
16	14	52	0	447	64.0	9745.0	-2223.0	-5704644.0
16	14	52	0	447	65.0	-67082.0	-2331.0	-5706066.0
16	14	52	0	448	66.0	-117847.0	-2175.0	-5705770.0
16	14	52	0	448	67.0	-144266.0	-2562.0	-5704969.0
16	14	52	0	448	68.0	-141213.0	-2377.0	-5704569.0
16	14	52	0	449	69.0	-108235.0	-2081.0	-5705749.0
16	14	52	0	449	70.0	-56267.0	-2151.0	-5705828.0
16	14	52	0	476	71.0	15273.0	-2394.0	-5705033.0
16	14	52	0	498	72.0	89139.0	-1615.0	-5704466.0
16	14	52	0	498	73.0	153427.0	-1005.0	-5705476.0
16	14	52	0	499	74.0	203394.0	-450.0	-5706200.0
16	14	52	0	499	76.0	230791.0	-1143.0	-5704951.0
16	14	52	0	499	77.0	177136.0	-1616.0	-5705978.0
16	14	52	0	500	78.0	126590.0	-2226.0	-5706317.0
16	14	52	0	500	79.0	92354.0	-2298.0	-5705500.0
16	14	52	0	501	80.0	74621.0	-2075.0	-5704941.0
16	14	52	0	501	81.0	85033.0	-709.0	-5705822.0
16	14	52	0	501	82.0	120782.0	-222.0	-5706261.0
16	14	52	0	501	83.0	187884.0	34.0	-5705433.0
16	14	52	0	502	84.0	252432.0	165.0	-5704754.0
16	14	52	0	502	85.0	285533.0	-46.0	-5705087.0
16	14	52	0	502	86.0	294598.0	-253.0	-5706057.0
16	14	52	0	503	99.0	1797629.0	1756.0	-5706269.0
16	14	52	0	503	100.0	1245417.0	630.0	-5705469.0
16	14	52	0	503	101.0	383286.0	61.0	-5705653.0
16	14	52	0	504	102.0	-799351.0	469.0	-5706826.0
16	14	52	0	504	103.0	-1930160.0	614.0	-5706229.0
16	14	52	0	504	104.0	-2802059.0	733.0	-5705351.0
16	14	52	0	521	105.0	-3146824.0	1029.0	-5704963.0
16	14	52	0	551	106.0	-2739480.0	1428.0	-5706207.0
16	14	52	0	552	107.0	-1751052.0	2481.0	-5706261.0
16	14	52	0	552	108.0	-704560.0	2443.0	-5705635.0
16	14	52	0	552	109.0	59023.0	1861.0	-5706019.0
16	14	52	0	553	110.0	684155.0	1940.0	-5707146.0
16	14	52	0	553	111.0	1520324.0	2591.0	-5706671.0
16	14	52	0	553	112.0	2437091.0	2977.0	-5705967.0
16	14	52	0	554	113.0	2958214.0	3689.0	-5705609.0
16	14	52	0	554	114.0	2771089.0	4114.0	-5706681.0
16	14	52	0	554	115.0	1963922.0	3870.0	-5706606.0
16	14	52	0	554	116.0	871015.0	3922.0	-5705678.0
16	14	52	0	555	117.0	-274115.0	3943.0	-5705377.0
16	14	52	0	555	118.0	-1266375.0	3641.0	-5706387.0
16	14	52	0	555	119.0	-2024252.0	3544.0	-5706033.0
16	14	52	0	555	121.0	-2880276.0	2844.0	-5704654.0
16	14	52	0	556	122.0	-2772895.0	2001.0	-5705666.0
16	14	52	0	556	123.0	-2573854.0	1444.0	-5705838.0
16	14	52	0	556	124.0	-2240381.0	2303.0	-5705077.0
16	14	52	0	557	125.0	-1678462.0	2671.0	-5704991.0
16	14	52	0	557	126.0	-978306.0	2815.0	-5706271.0
16	14	52	0	557	127.0	-265459.0	2646.0	-5706104.0
16	14	52	0	582	128.0	374303.0	2807.0	-5705340.0
16	14	52	0	582	129.0	901413.0	3537.0	-5705167.0
16	14	52	0	582	130.0	1124490.0	4327.0	-5706442.0
16	14	52	0	583	131.0	981288.0	4534.0	-5706294.0
16	14	52	0	583	132.0	652049.0	4635.0	-5705411.0
16	14	52	0	583	133.0	326780.0	4591.0	-5704829.0
16	14	52	0	584	134.0	97059.0	4349.0	-5705718.0
16	14	52	0	584	135.0	-38503.0	4550.0	-5706126.0
16	14	52	0	584	136.0	-110583.0	4056.0	-5705353.0
16	14	52	0	584	137.0	-152222.0	4336.0	-5704844.0
16	14	52	0	585	138.0	-193502.0	3961.0	-5705792.0
16	14	52	0	585	139.0	-247426.0	3033.0	-5706057.0
16	14	52	0	585	140.0	-301444.0	2891.0	-5705241.0
16	14	52	0	586	141.0	-328472.0	3566.0	-5704736.0
16	14	52	0	586	142.0	-294266.0	4001.0	-5705777.0
16	14	52	0	586	144.0	-75304.0	4414.0	-5705151.0
16	14	52	0	586	145.0	36487.0	3484.0	-5704582.0
16	14	52	0	587	146.0	127800.0	2994.0	-5705645.0
16	14	52	0	587	147.0	207588.0	3671.0	-5706117.0
16	14	52	0	587	148.0	273615.0	3538.0	-5705371.0
16	14	52	0	588	149.0	327341.0	3336.0	-5704714.0
16	14	52	0	611	150.0	365176.0	3160.0	-5705532.0
16	14	52	0	612	151.0	392737.0	3618.0	-5706184.0
16	14	52	0	612	152.0	402804.0	5275.0	-5705494.0
16	14	52	0	643	153.0	373120.0	5098.0	-5704731.0
16	14	52	0	644	154.0	316914.0	5272.0	-5705211.0
16	14	52	0	644	155.0	259643.0	5509.0	-5706292.0
16	14	52	0	645	156.0	226149.0	5296.0	-5705719.0
16	14	52	0	645	157.0	205834.0	4931.0	-5704994.0
16	14	52	0	646	158.0	181481.0	4964.0	-5705584.0
16	14	52	0	646	159.0	155174.0	4726.0	-5706234.0
16	14	52	0	646	160.0	123087.0	4808.0	-5705574.0
16	14	52	0	647	161.0	93134.0	4639.0	-5704804.0
16	14	52	0	647	162.0	59669.0	4846.0	-5705387.0
16	14	52	0	647	163.0	31204.0	4494.0	-5706224.0
16	14	52	0	648	164.0	19749.0	3836.0	-5705642.0
16	14	52	0	648	166.0	42243.0	3947.0	-5704911.0
16	14	52	0	648	167.0	62046.0	3571.0	-5706079.0
16	14	52	0	649	168.0	89464.0	2720.0	-5705714.0
16	14	52	0	649	169.0	116043.0	2900.0	-5704909.0
16	14	52	0	649	170.0	135276.0	3481.0	-5704971.0
16	14	52	0	650	171.0	164774.0	3543.0	-5706100.0
16	14	52	0	650	172.0	181404.0	4116.0	-5705700.0
16	14	52	0	677	173.0	206225.0	4221.0	-5704891.0
16	14	52	0	678	174.0	234025.0	4178.0	-5705167.0
16	14	52	0	678	175.0	248501.0	5000.0	-5706083.0
16	14	52	0	679	176.0	249889.0	5243.0	-5705560.0
16	14	52	0	679	177.0	237652.0	4776.0	-5704779.0
16	14	52	0	679	178.0	213876.0	4418.0	-5705331.0
16	14	52	0	680	179.0	176436.0	4507.0	-5706454.0
16	14	52	0	680	180.0	137833.0	4628.0	-5705844.0
16	14	52	0	680	181.0	118239.0	4531.0	-5705091.0
16	14	52	0	681	182.0	107756.0	4578.0	-5704629.0
16	14	52	0	681	183.0	100286.0	4937.0	-5705936.0
16	14	52	0	681	184.0	82597.0	5213.0	-5705996.0
16	14	52	0	681	185.0	61893.0	5219.0	-5705286.0
16	14	52	0	682	186.0	31373.0	4978.0	-5704856.0
16	14	52	0	682	187.0	-8202.0	4770.0	-5706074.0
16	14	52	0	682	189.0	-87917.0	5583.0	-5705189.0
16	14	52	0	683	190.0	-102355.0	5544.0	-5704829.0
16	14	52	0	683	191.0	-88586.0	6424.0	-5706026.0
16	14	52	0	683	192.0	-44342.0	7454.0	-5705743.0
16	14	52	0	683	193.0	24783.0	8336.0	-5705038.0
16	14	52	0	684	194.0	96073.0	9094.0	-5705080.0
16	14	52	0	712	195.0	171414.0	9887.0	-5706486.0
16	14	52	0	713	196.0	252816.0	10373.0	-5706004.0
16	14	52	0	713	197.0	335985.0	11879.0	-5705281.0
16	14	52	0	713	198.0	401129.0	12551.0	-5704839.0
16	14	52	0	714	199.0	448367.0	13808.0	-5706124.0
16	14	52	0	714	200.0	470683.0	14378.0	-5705960.0
16	14	52	0	715	201.0	463738.0	14809.0	-5705264.0
16	14	52	0	715	202.0	434328.0	15772.0	-5704747.0
16	14	52	0	715	203.0	406151.0	16643.0	-5705721.0
16	14	52	0	716	204.0	391231.0	17293.0	-5705498.0
16	14	52	0	716	205.0	389761.0	18478.0	-5704882.0
16	14	52	0	716	206.0	387124.0	19318.0	-5705498.0
16	14	52	0	717	207.0	375048.0	19909.0	-5706067.0
16	14	52	0	717	208.0	339641.0	20798.0	-5705304.0
16	14	52	0	717	209.0	458574.0	21908.0	-5704777.0
16	14	52	0	718	211.0	1080609.0	23640.0	-5706072.0
16	14	52	0	718	212.0	828721.0	24157.0	-5705231.0
16	14	52	0	718	213.0	519909.0	24259.0	-5704531.0
16	14	52	0	719	214.0	258951.0	25406.0	-5704586.0
16	14	52	0	719	215.0	56876.0	26536.0	-5706027.0
16	14	52	0	720	216.0	-77367.0	27104.0	-5705528.0
16	14	52	0	752	217.0	-147631.0	27479.0	-5704826.0
16	14	52	0	793	218.0	-158651.0	28456.0	-5704844.0
16	14	52	0	794	219.0	-132091.0	29174.0	-5706264.0
16	14	52	0	794	220.0	-96279.0	29565.0	-5705799.0
16	14	52	0	795	221.0	-68970.0	30174.0	-5705132.0
16	14	52	0	795	222.0	-64177.0	30738.0	-5705136.0
16	14	52	0	796	223.0	-68021.0	30879.0	-5706331.0
16	14	52	0	796	224.0	-52257.0	30673.0	-5705776.0
16	14	52	0	839	225.0	-8261.0	30886.0	-5705059.0
16	14	52	0	839	226.0	33051.0	31288.0	-5704719.0
16	14	52	0	840	227.0	62728.0	31311.0	-5706003.0
16	14	52	0	840	228.0	84319.0	30934.0	-5705774.0
16	14	52	0	841	229.0	101849.0	31214.0	-5705050.0
16	14	52	0	841	230.0	106953.0	31670.0	-5704610.0
16	14	52	0	841	231.0	102519.0	31312.0	-5705926.0
16	14	52	0	842	232.0	91617.0	31464.0	-5705984.0
16	14	52	0	842	0.0	-575572.0	16013.0	-5706432.0
16	14	52	0	842	1.0	-779935.0	14623.0	-5705832.0
16	14	52	0	843	2.0	-859454.0	13168.0	-5705094.0
16	14	52	0	843	3.0	-865409.0	12599.0	-5704877.0
16	14	52	0	843	4.0	-819950.0	12014.0	-5706130.0
16	14	52	0	844	5.0	-744621.0	11364.0	-5705723.0
16	14	52	0	844	6.0	-652164.0	10575.0	-5705020.0
16	14	52	0	844	7.0	-563536.0	10088.0	-5704644.0
16	14	52	0	845	8.0	-470768.0	9469.0	-5705975.0
16	14	52	0	845	9.0	-363604.0	9330.0	-5705877.0
16	14	52	0	845	10.0	-265118.0	8691.0	-5705138.0
16	14	52	0	846	11.0	-188486.0	7431.0	-5705159.0
16	14	52	0	846	12.0	-145766.0	6256.0	-5706669.0
16	14	52	0	883	13.0	-117940.0	5787.0	-5706322.0
16	14	52	0	883	14.0	-79526.0	5298.0	-5705578.0
16	14	52	0	883	15.0	-30421.0	4154.0	-5705141.0
16	14	52	0	884	16.0	839.0	3239.0	-5706423.0
16	14	52	0	884	17.0	-4722.0	3026.0	-5706491.0
16	14	52	0	885	18.0	-52132.0	2437.0	-5705728.0
16	14	52	0	885	19.0	-96864.0	1531.0	-5705045.0
16	14	52	0	885	20.0	-155761.0	739.0	-5705705.0
16	14	52	0	886	21.0	-234258.0	403.0	-5706322.0
16	14	52	0	886	23.0	-273765.0	-1774.0	-5705004.0
16	14	52	0	886	24.0	-239220.0	-2791.0	-5705971.0
16	14	52	0	887	25.0	-184422.0	-2967.0	-5706447.0
16	14	52	0	887	26.0	-118731.0	-3316.0	-5705652.0
16	14	52	0	887	27.0	-63593.0	-4163.0	-5705170.0
16	14	52	0	888	28.0	-21799.0	-4712.0	-5706267.0
16	14	52	0	888	29.0	961.0	-4230.0	-5706622.0
16	14	52	0	926	30.0	7903.0	-3297.0	-5705804.0
16	14	52	0	926	31.0	16166.0	-3377.0	-5705212.0
16	14	52	0	926	32.0	45301.0	-4094.0	-5705997.0
16	14	52	0	927	33.0	91669.0	-4991.0	-5706760.0
16	14	52	0	927	34.0	142809.0	-5561.0	-5705995.0
16	14	52	0	927	35.0	184884.0	-6324.0	-5705264.0
16	14	52	0	928	36.0	210329.0	-6622.0	-5705189.0
16	14	52	0	928	37.0	221506.0	-7192.0	-5706667.0
16	14	52	0	928	38.0	222912.0	-7635.0	-5706283.0
16	14	52	0	928	39.0	219577.0	-7790.0	-5705567.0
16	14	52	0	929	40.0	209053.0	-8306.0	-5705463.0
16	14	52	0	929	45.0	202109.0	-10720.0	-5706741.0
16	14	52	0	929	46.0	186829.0	-11401.0	-5706332.0
16	14	52	0	930	47.0	166344.0	-11924.0	-5705597.0
16	14	52	0	930	48.0	143704.0	-12460.0	-5705503.0
16	14	52	0	930	49.0	116703.0	-12748.0	-5706825.0
16	14	52	0	930	50.0	78598.0	-12883.0	-5706446.0
16	14	52	0	931	51.0	27253.0	-12901.0	-5705633.0
16	14	52	0	931	52.0	-32312.0	-13113.0	-5705446.0
16	14	52	0	971	53.0	-95494.0	-13202.0	-5706729.0
16	14	52	0	971	54.0	-146135.0	-13465.0	-5706488.0
16	14	52	0	972	55.0	-181516.0	-13781.0	-5705682.0
16	14	52	0	972	56.0	-211552.0	-13582.0	-5705158.0
16	14	52	0	972	57.0	-238942.0	-13294.0	-5706186.0
16	14	52	0	973	58.0	-263576.0	-13592.0	-5706488.0
16	14	52	0	973	59.0	-276438.0	-13599.0	-5705709.0
16	14	52	0	973	60.0	-266586.0	-13267.0	-5705391.0
16	14	52	0	974	61.0	-237021.0	-13782.0	-5706741.0
16	14	52	0	974	62.0	-208352.0	-13544.0	-5706717.0
16	14	52	0	974	63.0	-188949.0	-13848.0	-5705900.0
16	14	52	0	974	64.0	-171481.0	-14166.0	-5705579.0
16	14	52	0	975	65.0	-147581.0	-13784.0	-5706875.0
16	14	52	0	975	67.0	-81852.0	-13479.0	-5705994.0
16	14	52	0	975	68.0	-52912.0	-13182.0	-5705344.0
16	14	52	0	975	69.0	-38629.0	-14033.0	-5705876.0
16	14	52	0	976	70.0	-41296.0	-13587.0	-5706870.0
16	14	52	0	976	71.0	-39020.0	-13453.0	-5706176.0
16	14	52	0	976	72.0	-14694.0	-13356.0	-5705621.0
16	14	52	0	976	73.0	12526.0	-13417.0	-5706484.0
16	14	52	0	977	74.0	16969.0	-13300.0	-5707114.0
16	14	52	0	977	75.0	6681.0	-12112.0	-5706356.0
16	14	52	1	17	76.0	-8954.0	-10962.0	-5705713.0
16	14	52	1	18	77.0	-19524.0	-10976.0	-5706329.0
16	14	52	1	18	78.0	-23211.0	-10461.0	-5707207.0
16	14	52	1	19	79.0	-26577.0	-10494.0	-5706496.0
16	14	52	1	19	80.0	-28019.0	-10296.0	-5705854.0
16	14	52	1	19	81.0	-34949.0	-10592.0	-5706459.0
16	14	52	1	20	82.0	-46245.0	-10677.0	-5707288.0
16	14	52	1	20	83.0	-58591.0	-10476.0	-5706541.0
16	14	52	1	20	84.0	-65576.0	-9970.0	-5705802.0
16	14	52	1	20	85.0	-64352.0	-9709.0	-5705825.0
16	14	52	1	21	86.0	-57009.0	-9364.0	-5707066.0
16	14	52	1	21	87.0	-47979.0	-9194.0	-5706605.0
16	14	52	1	21	88.0	-34279.0	-8851.0	-5705849.0
16	14	52	1	21	90.0	-837.0	-8548.0	-5707066.0
16	14	52	1	22	91.0	23633.0	-8633.0	-5706934.0
16	14	52	1	22	92.0	29355.0	-8773.0	-5706195.0
16	14	52	1	22	93.0	18466.0	-8798.0	-5706152.0
16	14	52	1	23	94.0	6656.0	-8877.0	-5707466.0
16	14	52	1	23	95.0	17071.0	-8152.0	-5707103.0
16	14	52	1	23	96.0	45191.0	-7869.0	-5706317.0
16	14	52	1	23	97.0	80655.0	-7085.0	-5705888.0
16	14	52	1	24	98.0	103751.0	-6021.0	-5707053.0
16	14	52	1	24	99.0	121508.0	-4944.0	-5707084.0
16	14	52	1	24	100.0	137071.0	-4991.0	-5706261.0
16	14	52	1	25	101.0	155248.0	-5422.0	-5705754.0
16	14	52	1	25	102.0	180547.0	-4837.0	-5706721.0
16	14	52	1	25	103.0	207636.0	-4569.0	-5707027.0
16	14	52	1	26	104.0	234196.0	-4694.0	-5706222.0
16	14	52	1	26	105.0	255300.0	-4725.0	-5705619.0
16	14	52	1	26	106.0	263554.0	-4997.0	-5706518.0
16	14	52	1	27	107.0	258119.0	-4983.0	-5707417.0
16	14	52	1	27	108.0	243104.0	-4856.0	-5706701.0
16	14	52	1	27	109.0	224474.0	-4671.0	-5706111.0
16	14	52	1	27	110.0	204261.0	-4499.0	-5706905.0
16	14	52	1	28	112.0	172088.0	-4104.0	-5706914.0
16	14	52	1	64	113.0	174844.0	-4724.0	-5706272.0
16	14	52	1	65	114.0	192479.0	-5597.0	-5706886.0
16	14	52	1	65	115.0	217870.0	-5104.0	-5707729.0
16	14	52	1	66	116.0	244576.0	-4376.0	-5707006.0
16	14	52	1	67	117.0	264311.0	-4074.0	-5706296.0
16	14	52	1	68	118.0	275278.0	-4027.0	-5706084.0
16	14	52	1	69	119.0	269274.0	-4192.0	-5707379.0
16	14	52	1	69	120.0	245886.0	-3758.0	-5707042.0
16	14	52	1	70	121.0	203885.0	-3131.0	-5706309.0
16	14	52	1	70	122.0	152129.0	-2854.0	-5706564.0
16	14	52	1	71	123.0	107118.0	-2935.0	-5707994.0
16	14	52	1	71	124.0	73668.0	-2966.0	-5707491.0
16	14	52	1	72	125.0	47344.0	-2539.0	-5706755.0
16	14	52	1	72	126.0	25806.0	-2745.0	-5706780.0
16	14	52	1	73	127.0	9174.0	-2875.0	-5707992.0
16	14	52	1	73	128.0	1498.0	-2497.0	-5707546.0
16	14	52	1	74	129.0	4383.0	-2372.0	-5706777.0
16	14	52	1	75	130.0	11574.0	-2338.0	-5706769.0
16	14	52	1	75	131.0	22622.0	-2757.0	-5707834.0
16	14	52	1	113	132.0	35259.0	-3141.0	-5707401.0
16	14	52	1	114	133.0	46208.0	-3417.0	-5706581.0
16	14	52	1	114	135.0	73118.0	-2967.0	-5707686.0
16	14	52	1	114	136.0	90200.0	-3486.0	-5707556.0
16	14	52	1	114	137.0	111473.0	-3506.0	-5706752.0
16	14	52	1	114	138.0	133499.0	-3281.0	-5706451.0
16	14	52	1	115	139.0	163628.0	-3158.0	-5707789.0
16	14	52	1	115	140.0	198840.0	-3308.0	-5707767.0
16	14	52	1	115	141.0	221796.0	-4058.0	-5706962.0
16	14	52	1	115	142.0	231087.0	-4201.0	-5706671.0
16	14	52	1	115	143.0	230787.0	-3189.0	-5707927.0
16	14	52	1	116	144.0	227033.0	-2537.0	-5707911.0
16	14	52	1	116	145.0	225678.0	-2346.0	-5707092.0
16	14	52	1	116	146.0	224019.0	-2579.0	-5706488.0
16	14	52	1	116	147.0	230739.0	-1993.0	-5707234.0
16	14	52	1	116	148.0	237933.0	-2261.0	-5707816.0
16	14	52	1	116	149.0	246349.0	-2611.0	-5707046.0
16	14	52	1	117	150.0	257567.0	-2872.0	-5706399.0
16	14	52	1	117	151.0	268176.0	-2645.0	-5707093.0
16	14	52	1	117	152.0	275780.0	-2924.0	-5708012.0
16	14	52	1	117	153.0	271988.0	-3063.0	-5707288.0
16	14	52	1	117	154.0	260281.0	-3212.0	-5706695.0
16	14	52	1	161	155.0	239685.0	-2916.0	-5707720.0
16	14	52	1	161	157.0	186059.0	-2467.0	-5707652.0
16	14	52	1	161	158.0	150898.0	-2720.0	-5707011.0
16	14	52	1	162	159.0	116153.0	-3516.0	-5707674.0
16	14	52	1	162	160.0	93385.0	-3481.0	-5708297.0
16	14	52	1	162	161.0	86261.0	-3704.0	-5707529.0
16	14	52	1	162	162.0	87254.0	-3227.0	-5706859.0
16	14	52	1	162	163.0	82808.0	-3198.0	-5707212.0
16	14	52	1	163	164.0	80718.0	-3049.0	-5708204.0
16	14	52	1	163	165.0	87923.0	-2907.0	-5707561.0
16	14	52	1	163	166.0	99615.0	-2091.0	-5706797.0
16	14	52	1	163	167.0	105644.0	-2514.0	-5706862.0
16	14	52	1	164	168.0	100825.0	-2639.0	-5708126.0
16	14	52	1	164	169.0	81618.0	-1887.0	-5707695.0
16	14	52	1	164	170.0	53066.0	-1639.0	-5706927.0
16	14	52	1	206	171.0	18894.0	-1466.0	-5707246.0
16	14	52	1	206	172.0	-18814.0	-2033.0	-5708287.0
16	14	52	1	206	173.0	-47698.0	-2690.0	-5707741.0
16	14	52	1	207	174.0	-74812.0	-2812.0	-5706962.0
16	14	52	1	207	175.0	-95427.0	-2619.0	-5707020.0
16	14	52	1	207	176.0	-111791.0	-2313.0	-5708176.0
16	14	52	1	207	177.0	-119699.0	-2017.0	-5707770.0
16	14	52	1	208	178.0	-121156.0	-2006.0	-5706949.0
16	14	52	1	208	180.0	-125621.0	-2416.0	-5707540.0
16	14	52	1	208	181.0	-113079.0	-3396.0	-5707566.0
16	14	52	1	208	182.0	-98077.0	-3854.0	-5706759.0
16	14	52	1	209	183.0	-99989.0	-3215.0	-5706431.0
16	14	52	1	209	184.0	-122692.0	-2302.0	-5707473.0
16	14	52	1	209	185.0	-159689.0	-2225.0	-5707405.0
16	14	52	1	209	186.0	-196992.0	-1734.0	-5706614.0
16	14	52	1	210	202.0	766943.0	-190.0	-5707157.0
16	14	52	1	210	203.0	1003000.0	-401.0	-5706562.0
16	14	52	1	210	204.0	1308838.0	-1389.0	-5707690.0
16	14	52	1	210	205.0	1659143.0	-1256.0	-5707951.0
16	14	52	1	248	206.0	1733429.0	-1276.0	-5707244.0
16	14	52	1	249	207.0	1258529.0	-1067.0	-5706541.0
16	14	52	1	249	208.0	537763.0	-503.0	-5707327.0
16	14	52	1	249	209.0	-433346.0	-382.0	-5707647.0
16	14	52	1	249	210.0	-1341935.0	-229.0	-5706827.0
16	14	52	1	250	211.0	-1987824.0	116.0	-5705947.0
16	14	52	1	250	212.0	-2190193.0	891.0	-5706638.0
16	14	52	1	250	213.0	-1783570.0	937.0	-5707691.0
16	14	52	1	251	214.0	-896409.0	673.0	-5707199.0
16	14	52	1	251	215.0	16393.0	847.0	-5706474.0
16	14	52	1	251	216.0	546813.0	1155.0	-5706516.0
16	14	52	1	251	217.0	771419.0	1616.0	-5707819.0
16	14	52	1	252	218.0	1079871.0	1984.0	-5707563.0
16	14	52	1	252	219.0	1575536.0	2574.0	-5706836.0
16	14	52	1	293	220.0	1937259.0	2998.0	-5706831.0
16	14	52	1	293	221.0	1823751.0	2903.0	-5707979.0
16	14	52	1	293	222.0	1174876.0	2678.0	-5707612.0
16	14	52	1	293	223.0	205069.0	2158.0	-5706697.0
16	14	52	1	294	225.0	-1866832.0	1968.0	-5707791.0
16	14	52	1	294	226.0	-2526776.0	1669.0	-5707252.0
16	14	52	1	294	227.0	-2940129.0	1521.0	-5706373.0
16	14	52	1	295	228.0	-3036944.0	1479.0	-5705958.0
16	14	52	1	295	229.0	-2751824.0	2276.0	-5707168.0
16	14	52	1	295	230.0	-2383009.0	2577.0	-5707283.0
16	14	52	1	295	231.0	-2118646.0	2968.0	-5706529.0
16	14	52	1	295	232.0	-1762951.0	3588.0	-5706149.0
16	14	52	1	296	233.0	-1227697.0	4157.0	-5707335.0
16	14	52	1	296	234.0	-668391.0	4894.0	-5707404.0
16	14	52	1	296	235.0	-187777.0	5189.0	-5706681.0
16	14	52	1	296	236.0	239681.0	4554.0	-5706275.0
16	14	52	1	297	237.0	479258.0	4296.0	-5707586.0
16	14	52	1	297	238.0	394810.0	4441.0	-5707825.0
16	14	52	1	297	239.0	119547.0	4326.0	-5707036.0
16	14	52	1	297	240.0	-128300.0	4271.0	-5706521.0
16	14	52	1	298	241.0	-291692.0	3946.0	-5707691.0
16	14	52	1	298	242.0	-403267.0	4303.0	-5707841.0
16	14	52	1	298	243.0	-458839.0	4361.0	-5707051.0
16	14	52	1	298	244.0	-455526.0	4189.0	-5706324.0
16	14	52	1	335	245.0	-401577.0	3896.0	-5707012.0
16	14	52	1	335	247.0	-365880.0	4628.0	-5706802.0
16	14	52	1	335	248.0	-375116.0	4443.0	-5706052.0
16	14	52	1	336	249.0	-347022.0	3806.0	-5706923.0
16	14	52	1	336	250.0	-278269.0	3681.0	-5707586.0
16	14	52	1	336	251.0	-155946.0	3501.0	-5706977.0
16	14	52	1	336	252.0	-47494.0	3576.0	-5706417.0
16	14	52	1	337	253.0	2851.0	3825.0	-5707607.0
16	14	52	1	337	254.0	55243.0	4140.0	-5707873.0
16	14	52	1	337	255.0	128289.0	4737.0	-5707180.0
16	14	52	1	337	0.0	161519.0	5816.0	-5706378.0
16	14	52	1	338	1.0	165426.0	6386.0	-5706749.0
16	14	52	1	338	2.0	178493.0	6096.0	-5707806.0
16	14	52	1	338	3.0	181483.0	5511.0	-5707280.0
16	14	52	1	338	4.0	154214.0	5119.0	-5706435.0
16	14	52	1	339	5.0	120268.0	5037.0	-5706627.0
16	14	52	1	339	6.0	96503.0	4357.0	-5707687.0
16	14	52	1	339	7.0	79253.0	3982.0	-5707231.0
16	14	52	1	339	8.0	54467.0	4131.0	-5706432.0
16	14	52	1	340	9.0	38780.0	4496.0	-5706686.0
16	14	52	1	340	10.0	62277.0	4290.0	-5707921.0
16	14	52	1	340	11.0	114768.0	4365.0	-5707474.0
16	14	52	1	340	12.0	142520.0	4864.0	-5706690.0
16	14	52	1	341	14.0	132093.0	5154.0	-5708303.0
16	14	52	1	341	15.0	159594.0	4121.0	-5707933.0
16	14	52	1	341	16.0	204730.0	4070.0	-5707119.0
16	14	52	1	341	17.0	242936.0	4081.0	-5706941.0
16	14	52	1	383	18.0	270884.0	4294.0	-5708241.0
16	14	52	1	383	19.0	296606.0	4764.0	-5707926.0
16	14	52	1	383	20.0	324532.0	4732.0	-5707174.0
16	14	52	1	384	21.0	350106.0	5071.0	-5706523.0
16	14	52	1	384	22.0	374097.0	5824.0	-5707293.0
16	14	52	1	384	23.0	410749.0	5908.0	-5707677.0
16	14	52	1	384	24.0	460635.0	5566.0	-5706987.0
16	14	52	1	385	25.0	514750.0	4764.0	-5706429.0
16	14	52	1	385	26.0	562987.0	4735.0	-5707576.0
16	14	52	1	385	27.0	588171.0	4219.0	-5707706.0
16	14	52	1	386	28.0	587313.0	4296.0	-5706989.0
16	14	52	1	386	29.0	561251.0	4750.0	-5706391.0
16	14	52	1	386	30.0	525730.0	5132.0	-5707485.0
16	14	52	1	386	31.0	483913.0	5441.0	-5707677.0
16	14	52	1	386	32.0	436931.0	5195.0	-5706969.0
16	14	52	1	387	33.0	375622.0	5281.0	-5706376.0
16	14	52	1	434	34.0	291115.0	4880.0	-5707501.0
16	14	52	1	434	36.0	132528.0	6036.0	-5706790.0
16	14	52	1	434	37.0	87847.0	5356.0	-5706058.0
16	14	52	1	434	38.0	54194.0	4773.0	-5706783.0
16	14	52	1	435	39.0	24869.0	5355.0	-5707262.0
16	14	52	1	435	40.0	-4235.0	6488.0	-5706612.0
16	14	52	1	435	41.0	-30084.0	7347.0	-5705835.0
16	14	52	1	435	42.0	-51474.0	7636.0	-5706594.0
16	14	52	1	436	43.0	-82080.0	7737.0	-5707684.0
16	14	52	1	436	44.0	-110034.0	8910.0	-5707110.0
16	14	52	1	436	45.0	-125132.0	10536.0	-5706419.0
16	14	52	1	436	46.0	-107951.0	10858.0	-5707538.0
16	14	52	1	437	47.0	-83994.0	11246.0	-5707929.0
16	14	52	1	437	48.0	-50244.0	12169.0	-5707256.0
16	14	52	1	437	49.0	-17356.0	12993.0	-5706454.0
16	14	52	1	437	50.0	3179.0	13419.0	-5706981.0
16	14	52	1	438	51.0	18948.0	14461.0	-5707737.0
16	14	52	1	438	52.0	42843.0	15053.0	-5707097.0
16	14	52	1	438	53.0	70481.0	15109.0	-5706349.0
16	14	52	1	438	54.0	93843.0	16176.0	-5706770.0
16	14	52	1	439	55.0	110913.0	17188.0	-5707733.0
16	14	52	1	439	56.0	126646.0	17848.0	-5707144.0
16	14	52	1	439	57.0	136957.0	17873.0	-5706422.0
16	14	52	1	439	59.0	123317.0	19865.0	-5707616.0
16	14	52	1	440	60.0	113884.0	20129.0	-5707052.0
16	14	52	1	485	61.0	94378.0	20817.0	-5706337.0
16	14	52	1	485	62.0	78803.0	22118.0	-5706578.0
16	14	52	1	486	63.0	79714.0	23161.0	-5707113.0
16	14	52	1	486	64.0	79838.0	23911.0	-5706453.0
16	14	52	1	486	65.0	81651.0	24932.0	-5706145.0
16	14	52	1	486	66.0	87563.0	26055.0	-5707421.0
16	14	52	1	487	67.0	88947.0	27348.0	-5707179.0
16	14	52	1	487	68.0	97516.0	27758.0	-5706412.0
16	14	52	1	487	69.0	122719.0	28398.0	-5705852.0
16	14	52	1	487	70.0	162794.0	29163.0	-5706829.0
16	14	52	1	488	71.0	209074.0	29756.0	-5707269.0
16	14	52	1	488	72.0	239889.0	30123.0	-5706508.0
16	14	52	1	488	73.0	260016.0	30213.0	-5705999.0
16	14	52	1	489	74.0	272153.0	30279.0	-5707112.0
16	14	52	1	489	75.0	271365.0	30712.0	-5707447.0
16	14	52	1	489	76.0	263254.0	30839.0	-5706662.0
16	14	52	1	489	77.0	248638.0	30766.0	-5706221.0
16	14	52	1	490	78.0	248550.0	31245.0	-5707464.0
16	14	52	1	490	79.0	251901.0	31091.0	-5707724.0
16	14	52	1	490	81.0	291420.0	31808.0	-5706293.0
16	14	52	1	490	82.0	317276.0	30951.0	-5707030.0
16	14	52	1	491	83.0	344073.0	30015.0	-5707754.0
16	14	52	1	491	84.0	356661.0	29756.0	-5706967.0
16	14	52	1	491	85.0	346847.0	30303.0	-5706297.0
16	14	52	1	491	86.0	309840.0	30065.0	-5706761.0
16	14	52	1	536	87.0	238179.0	29191.0	-5707684.0
16	14	52	1	536	88.0	135539.0	28774.0	-5706987.0
16	14	52	1	536	89.0	3759.0	29438.0	-5706295.0
16	14	52	1	537	90.0	-151491.0	29748.0	-5706305.0
16	14	52	1	537	91.0	-349893.0	29176.0	-5707636.0
16	14	52	1	537	92.0	-677473.0	28346.0	-5707099.0
16	14	52	1	537	93.0	-1251098.0	27690.0	-5706346.0
16	14	52	1	538	94.0	-1990264.0	26324.0	-5706544.0
16	14	52	1	538	95.0	-2555196.0	25109.0	-5707672.0
16	14	52	1	538	96.0	-2478519.0	24758.0	-5707077.0
16	14	52	1	539	97.0	-1605153.0	23454.0	-5706458.0
16	14	52	1	539	98.0	-220190.0	22631.0	-5706602.0
16	14	52	1	539	99.0	1039014.0	22408.0	-5707952.0
16	14	52	1	539	100.0	1787751.0	22249.0	-5707525.0
16	14	52	1	540	101.0	1996311.0	21695.0	-5706772.0
16	14	52	1	540	103.0	1238406.0	20053.0	-5707296.0
16	14	52	1	540	104.0	628348.0	19108.0	-5707522.0
16	14	52	1	540	105.0	68709.0	17313.0	-5706706.0
16	14	52	1	541	106.0	-360749.0	16282.0	-5706331.0
16	14	52	1	541	107.0	-588084.0	15101.0	-5707691.0
16	14	52	1	541	108.0	-611801.0	14091.0	-5707651.0
16	14	52	1	542	109.0	-504891.0	13564.0	-5706877.0
16	14	52	1	586	110.0	-335787.0	12934.0	-5706407.0
16	14	52	1	586	111.0	-153156.0	12832.0	-5707558.0
16	14	52	1	587	112.0	35354.0	12498.0	-5707729.0
16	14	52	1	587	113.0	212728.0	11443.0	-5706958.0
16	14	52	1	587	114.0	369643.0	10763.0	-5706275.0
16	14	52	1	587	115.0	479079.0	9616.0	-5706697.0
16	14	52	1	588	116.0	512385.0	8499.0	-5707558.0
16	14	52	1	588	117.0	491754.0	7564.0	-5706831.0
16	14	52	1	588	118.0	456402.0	7395.0	-5706206.0
16	14	52	1	589	119.0	420964.0	6890.0	-5707009.0
16	14	52	1	589	120.0	387611.0	5853.0	-5707819.0
16	14	52	1	589	121.0	353493.0	5321.0	-5707061.0
16	14	52	1	589	122.0	304928.0	4754.0	-5706434.0
16	14	52	1	707	123.0	262944.0	4024.0	-5707298.0
16	14	52	1	707	124.0	215751.0	3375.0	-5708401.0
16	14	52	1	707	126.0	120060.0	1176.0	-5707034.0
16	14	52	1	707	127.0	96174.0	-262.0	-5707484.0
16	14	52	1	708	128.0	103173.0	-1215.0	-5708431.0
16	14	52	1	708	129.0	145050.0	-1572.0	-5707729.0
16	14	52	1	709	130.0	219339.0	-1619.0	-5707016.0
16	14	52	1	709	131.0	318599.0	-1930.0	-5706650.0
16	14	52	1	709	132.0	435034.0	-1974.0	-5707971.0
16	14	52	1	710	133.0	536961.0	-2501.0	-5707766.0
16	14	52	1	710	134.0	604631.0	-2720.0	-5707032.0
16	14	52	1	710	135.0	637085.0	-3556.0	-5706859.0
16	14	52	1	711	136.0	639288.0	-4281.0	-5708061.0
16	14	52	1	711	137.0	607934.0	-4980.0	-5707664.0
16	14	52	1	711	138.0	564159.0	-5318.0	-5706907.0
16	14	52	1	712	148.0	196849.0	-10546.0	-5707969.0
16	14	52	1	712	149.0	196341.0	-11271.0	-5707859.0
16	14	52	1	712	150.0	199597.0	-12056.0	-5707066.0
16	14	52	1	713	151.0	206747.0	-12042.0	-5706580.0
16	14	52	1	713	152.0	215797.0	-12288.0	-5707676.0
16	14	52	1	713	153.0	225125.0	-12756.0	-5708038.0
16	14	52	1	714	154.0	219813.0	-13380.0	-5707247.0
16	14	52	1	714	155.0	199743.0	-13479.0	-5706829.0
16	14	52	1	714	156.0	182073.0	-13617.0	-5708087.0
16	14	52	1	715	157.0	150541.0	-13569.0	-5708316.0
16	14	52	1	715	158.0	102362.0	-13539.0	-5707494.0
16	14	52	1	715	159.0	47459.0	-13489.0	-5706928.0
16	14	52	1	716	160.0	-16978.0	-13457.0	-5707886.0
16	14	52	1	716	161.0	-82473.0	-13808.0	-5708374.0
16	14	52	1	716	162.0	-147632.0	-14121.0	-5707566.0
16	14	52	1	717	163.0	-199834.0	-14489.0	-5706893.0
16	14	52	1	717	164.0	-249267.0	-15134.0	-5707582.0
16	14	52	1	717	165.0	-292091.0	-15116.0	-5708543.0
16	14	52	1	718	166.0	-322886.0	-15671.0	-5707781.0
16	14	52	1	718	167.0	-343748.0	-15160.0	-5707101.0
16	14	52	1	719	168.0	-356164.0	-15230.0	-5707696.0
16	14	52	1	719	169.0	-360367.0	-14859.0	-5708485.0
16	14	52	1	720	171.0	-346988.0	-14493.0	-5707094.0
16	14	52	1	720	172.0	-339542.0	-15306.0	-5707794.0
16	14	52	1	720	173.0	-335587.0	-15705.0	-5708681.0
16	14	52	1	721	174.0	-338905.0	-15395.0	-5707980.0
16	14	52	1	721	175.0	-349331.0	-15423.0	-5707328.0
16	14	52	1	721	176.0	-358693.0	-15457.0	-5708036.0
16	14	52	1	722	177.0	-354568.0	-15680.0	-5708658.0
16	14	52	1	722	178.0	-349813.0	-15554.0	-5707930.0
16	14	52	1	722	179.0	-352907.0	-13981.0	-5707163.0
16	14	52	1	722	180.0	-349793.0	-13155.0	-5707179.0
16	14	52	1	723	181.0	-343678.0	-13592.0	-5708324.0
16	14	52	1	723	182.0	-327994.0	-13478.0	-5707857.0
16	14	52	1	723	183.0	-304576.0	-13626.0	-5707091.0
16	14	52	1	724	184.0	-283297.0	-13287.0	-5707266.0
16	14	52	1	724	185.0	-265129.0	-13152.0	-5708406.0
16	14	52	1	724	186.0	-248491.0	-12879.0	-5707888.0
16	14	52	1	725	187.0	-226701.0	-12172.0	-5707099.0
16	14	52	1	725	188.0	-208591.0	-12422.0	-5707384.0
16	14	52	1	725	189.0	-195784.0	-12033.0	-5708399.0
16	14	52	1	726	190.0	-187599.0	-11217.0	-5707860.0
16	14	52	1	726	191.0	-184429.0	-10411.0	-5707027.0
16	14	52	1	726	193.0	-211399.0	-9718.0	-5708141.0
16	14	52	1	727	194.0	-222909.0	-9387.0	-5707745.0
16	14	52	1	727	195.0	-223552.0	-10232.0	-5706920.0
16	14	52	1	727	196.0	-214487.0	-10236.0	-5706869.0
16	14	52	1	728	197.0	-205525.0	-10063.0	-5707974.0
16	14	52	1	728	198.0	-203382.0	-9567.0	-5707605.0
16	14	52	1	729	199.0	-201120.0	-8794.0	-5706769.0
16	14	52	1	735	200.0	-197659.0	-8599.0	-5706518.0
16	14	52	1	797	201.0	-184256.0	-7862.0	-5707782.0
16	14	52	1	797	202.0	-150452.0	-6989.0	-5707655.0
16	14	52	1	798	203.0	-123869.0	-7004.0	-5706862.0
16	14	52	1	798	204.0	-108309.0	-6567.0	-5706955.0
16	14	52	1	798	205.0	-85591.0	-6165.0	-5708106.0
16	14	52	1	799	206.0	-52530.0	-6154.0	-5707682.0
16	14	52	1	799	207.0	-31779.0	-6014.0	-5706838.0
16	14	52	1	799	208.0	-22440.0	-5398.0	-5706702.0
16	14	52	1	799	209.0	-12084.0	-5237.0	-5708080.0
16	14	52	1	800	210.0	2089.0	-5042.0	-5707851.0
16	14	52	1	800	211.0	20260.0	-4660.0	-5707023.0
16	14	52	1	800	212.0	30160.0	-4586.0	-5706463.0
16	14	52	1	800	213.0	36249.0	-4865.0	-5707555.0
16	14	52	1	801	214.0	52174.0	-4718.0	-5707864.0
16	14	52	1	801	216.0	88478.0	-3886.0	-5706461.0
16	14	52	1	801	217.0	111119.0	-4561.0	-5707494.0
16	14	52	1	801	218.0	150888.0	-4824.0	-5707917.0
16	14	52	1	802	219.0	194644.0	-4576.0	-5707221.0
16	14	52	1	802	220.0	231712.0	-4071.0	-5706672.0
16	14	52	1	802	221.0	249493.0	-3807.0	-5707609.0
16	14	52	1	802	222.0	253120.0	-3352.0	-5707627.0
16	14	52	1	803	223.0	249986.0	-3227.0	-5706888.0
16	14	52	1	803	224.0	247394.0	-2462.0	-5706399.0
16	14	52	1	803	225.0	246908.0	-2399.0	-5707541.0
16	14	52	1	804	226.0	234614.0	-2537.0	-5707468.0
16	14	52	1	804	227.0	199761.0	-2348.0	-5706709.0
16	14	52	1	804	228.0	159023.0	-2480.0	-5705963.0
16	14	52	1	804	229.0	121988.0	-2207.0	-5706937.0
16	14	52	1	805	230.0	90336.0	-2194.0	-5707680.0
16	14	52	1	805	231.0	64375.0	-2054.0	-5707039.0
16	14	52	1	805	232.0	51295.0	-1709.0	-5706287.0
16	14	52	1	805	233.0	42093.0	-2001.0	-5707052.0
16	14	52	1	806	234.0	34710.0	-1827.0	-5707792.0
16	14	52	1	806	235.0	20495.0	-1866.0	-5707182.0
16	14	52	1	806	236.0	10974.0	-1774.0	-5706533.0
16	14	52	1	806	238.0	3550.0	-1486.0	-5707851.0
16	14	52	1	807	239.0	7075.0	-1812.0	-5707183.0
16	14	52	1	807	240.0	40001.0	-2521.0	-5706437.0
16	14	52	1	864	241.0	47786.0	-2509.0	-5707161.0
16	14	52	1	864	242.0	20936.0	-2614.0	-5707882.0
16	14	52	1	865	243.0	-13751.0	-2249.0	-5707244.0
16	14	52	1	865	244.0	-80401.0	-2391.0	-5706413.0
16	14	52	1	865	245.0	-143463.0	-2838.0	-5706811.0
16	14	52	1	866	246.0	-200429.0	-2694.0	-5707745.0
16	14	52	1	866	247.0	-248621.0	-2232.0	-5707155.0
16	14	52	1	866	248.0	-297141.0	-2461.0	-5706372.0
16	14	52	1	866	249.0	-338630.0	-2406.0	-5706336.0
16	14	52	1	867	250.0	-382159.0	-2360.0	-5707706.0
16	14	52	1	867	251.0	-415902.0	-2291.0	-5707378.0
16	14	52	1	867	252.0	-442197.0	-1924.0	-5706598.0
16	14	52	1	868	253.0	-462991.0	-1486.0	-5706486.0
16	14	52	1	868	254.0	-465736.0	-2121.0	-5707686.0
16	14	52	1	868	255.0	-447325.0	-2492.0	-5707308.0
16	14	52	1	869	0.0	-427139.0	-1912.0	-5706542.0
16	14	52	1	869	1.0	-388071.0	-1695.0	-5706671.0
16	14	52	1	869	2.0	-334062.0	-2058.0	-5707835.0
16	14	52	1	869	3.0	-271216.0	-1275.0	-5707280.0
16	14	52	1	870	5.0	-132506.0	-767.0	-5705972.0
16	14	52	1	870	6.0	-96954.0	-2249.0	-5707062.0
16	14	52	1	870	7.0	-91299.0	-2277.0	-5707262.0
16	14	52	1	870	8.0	-125052.0	-2299.0	-5706531.0
16	14	52	1	871	9.0	-176297.0	-2363.0	-5705987.0
16	14	52	1	871	10.0	-222304.0	-2350.0	-5707036.0
16	14	52	1	924	11.0	-250797.0	-2271.0	-5706952.0
16	14	52	1	925	12.0	-264767.0	-2073.0	-5706243.0
16	14	52	1	925	13.0	-270317.0	-1103.0	-5705739.0
16	14	52	1	926	14.0	-254372.0	-821.0	-5706906.0
16	14	52	1	926	15.0	-231284.0	-1359.0	-5706847.0
16	14	52	1	926	16.0	-191596.0	-1694.0	-5706174.0
16	14	52	1	927	17.0	-138336.0	-1854.0	-5705758.0
16	14	52	1	927	18.0	-91118.0	-1837.0	-5707122.0
16	14	52	1	927	19.0	-35889.0	-2360.0	-5706953.0
16	14	52	1	928	20.0	31019.0	-2427.0	-5706265.0
16	14	52	1	928	21.0	112960.0	-2343.0	-5705594.0
16	14	52	1	928	22.0	200804.0	-2158.0	-5706656.0
16	14	52	1	928	23.0	306529.0	-2045.0	-5707013.0
16	14	52	1	929	24.0	444525.0	-2435.0	-5706343.0
16	14	52	1	929	25.0	625157.0	-2435.0	-5705718.0
16	14	52	1	929	27.0	1044409.0	-2006.0	-5706486.0
16	14	52	1	929	50.0	-1569342.0	24.0	-5706904.0
16	14	52	1	987	51.0	-2274409.0	-221.0	-5706142.0
16	14	52	1	988	52.0	-2636028.0	-296.0	-5705311.0
16	14	52	1	988	53.0	-2548911.0	-177.0	-5705141.0
16	14	52	1	988	54.0	-2245123.0	-344.0	-5706341.0
16	14	52	1	989	55.0	-1828254.0	156.0	-5706069.0
16	14	52	1	989	56.0	-1272272.0	596.0	-5705339.0
16	14	52	1	989	57.0	-682009.0	1083.0	-5705346.0
16	14	52	1	990	58.0	-153614.0	1607.0	-5706591.0
16	14	52	1	990	59.0	265079.0	1684.0	-5706286.0
16	14	52	1	990	60.0	564971.0	1166.0	-5705546.0
16	14	52	1	990	61.0	696668.0	987.0	-5705971.0
16	14	52	1	991	62.0	598567.0	982.0	-5707146.0
16	14	52	1	991	63.0	418039.0	1369.0	-5706621.0
16	14	52	1	991	64.0	256659.0	1897.0	-5705799.0
16	14	52	1	992	65.0	125955.0	2096.0	-5705536.0
16	14	52	1	992	66.0	39570.0	2025.0	-5706653.0
16	14	52	1	992	67.0	20050.0	2588.0	-5706456.0
16	14	52	1	992	68.0	61169.0	2853.0	-5705620.0
16	14	52	1	993	69.0	106909.0	2879.0	-5705226.0
16	14	52	1	993	70.0	113508.0	2928.0	-5706427.0
16	14	52	1	993	72.0	-35354.0	2841.0	-5705722.0
16	14	52	1	994	73.0	-112068.0	2186.0	-5705396.0
16	14	52	1	994	74.0	-142557.0	2232.0	-5706539.0
16	14	52	1	994	75.0	-115354.0	2277.0	-5706474.0
16	14	52	1	994	76.0	-40623.0	2333.0	-5705701.0
16	14	52	2	51	77.0	87742.0	1944.0	-5705891.0
16	14	52	2	51	78.0	232420.0	2433.0	-5707265.0
16	14	52	2	52	79.0	363536.0	2646.0	-5706882.0
16	14	52	2	52	80.0	453106.0	2974.0	-5706089.0
16	14	52	2	52	81.0	505383.0	3155.0	-5705751.0
16	14	52	2	53	82.0	506188.0	3503.0	-5706907.0
16	14	52	2	53	83.0	468713.0	4117.0	-5706757.0
16	14	52	2	53	84.0	407359.0	4299.0	-5705965.0
16	14	52	2	54	85.0	325588.0	4551.0	-5705329.0
16	14	52	2	54	86.0	235487.0	4789.0	-5706326.0
16	14	52	2	54	87.0	158317.0	3991.0	-5706961.0
16	14	52	2	54	88.0	81430.0	3913.0	-5706227.0
16	14	52	2	55	89.0	15428.0	4412.0	-5705640.0
16	14	52	2	55	90.0	-35434.0	4494.0	-5706757.0
16	14	52	2	55	91.0	-78651.0	4509.0	-5707247.0
16	14	52	2	55	95.0	-106854.0	4293.0	-5706978.0
16	14	52	2	56	96.0	-106729.0	3955.0	-5706299.0
16	14	52	2	56	97.0	-97601.0	3690.0	-5705700.0
16	14	52	2	56	98.0	-84851.0	3603.0	-5706811.0
16	14	52	2	56	99.0	-56912.0	3953.0	-5707220.0
16	14	52	2	57	100.0	-15661.0	3866.0	-5706502.0
16	14	52	2	57	101.0	29879.0	3876.0	-5705745.0
16	14	52	2	57	102.0	73027.0	4446.0	-5706294.0
16	14	52	2	121	103.0	85850.0	5393.0	-5707104.0
16	14	52	2	121	104.0	76980.0	5756.0	-5706469.0
16	14	52	2	122	105.0	40501.0	5639.0	-5705641.0
16	14	52	2	122	106.0	-19291.0	5441.0	-5706106.0
16	14	52	2	122	107.0	-100047.0	4954.0	-5707407.0
16	14	52	2	122	108.0	-179332.0	4651.0	-5706902.0
16	14	52	2	123	109.0	-246498.0	4708.0	-5706118.0
16	14	52	2	123	110.0	-316676.0	4656.0	-5706412.0
16	14	52	2	123	111.0	-401516.0	4778.0	-5707329.0
16	14	52	2	123	112.0	-515559.0	4994.0	-5706789.0
16	14	52	2	124	113.0	-759924.0	5196.0	-5705934.0
16	14	52	2	124	114.0	-811740.0	5256.0	-5705937.0
16	14	52	2	124	115.0	-721007.0	4939.0	-5707245.0
16	14	52	2	124	117.0	-573539.0	4994.0	-5706122.0
16	14	52	2	125	118.0	-522347.0	4229.0	-5705966.0
16	14	52	2	125	119.0	-502727.0	3924.0	-5707164.0
16	14	52	2	125	120.0	-506595.0	4009.0	-5706909.0
16	14	52	2	126	121.0	-518302.0	4373.0	-5706121.0
16	14	52	2	126	122.0	-526675.0	4983.0	-5705815.0
16	14	52	2	126	123.0	-526066.0	5699.0	-5707137.0
16	14	52	2	126	124.0	-507087.0	6496.0	-5707119.0
16	14	52	2	127	125.0	-484907.0	7803.0	-5706319.0
16	14	52	2	127	126.0	-443979.0	8396.0	-5705921.0
16	14	52	2	127	127.0	-387759.0	8320.0	-5707186.0
16	14	52	2	128	128.0	-333006.0	8429.0	-5707294.0
16	14	52	2	128	129.0	-285494.0	8657.0	-5706503.0
16	14	52	2	131	130.0	-256968.0	9059.0	-5705884.0
16	14	52	2	132	131.0	-231107.0	9825.0	-5706806.0
16	14	52	2	132	132.0	-190184.0	10858.0	-5707356.0
16	14	52	2	133	133.0	-137236.0	11218.0	-5706657.0
16	14	52	2	133	134.0	-88401.0	11890.0	-5705910.0
16	14	52	2	133	135.0	-58222.0	12768.0	-5706241.0
16	14	52	2	134	136.0	-52803.0	13823.0	-5707084.0
16	14	52	2	134	137.0	-53002.0	14980.0	-5706484.0
16	14	52	2	135	139.0	-60797.0	16241.0	-5706841.0
16	14	52	2	135	140.0	-46576.0	17129.0	-5707206.0
16	14	52	2	136	141.0	-33174.0	17195.0	-5706484.0
16	14	52	2	136	142.0	-13749.0	17863.0	-5705714.0
16	14	52	2	136	143.0	14314.0	19478.0	-5706281.0
16	14	52	2	137	144.0	46029.0	20733.0	-5707128.0
16	14	52	2	137	145.0	76694.0	21520.0	-5706528.0
16	14	52	2	195	146.0	121195.0	22268.0	-5705709.0
16	14	52	2	195	147.0	162250.0	23115.0	-5705812.0
16	14	52	2	196	148.0	195719.0	24839.0	-5707011.0
16	14	52	2	196	149.0	228243.0	25663.0	-5706595.0
16	14	52	2	196	150.0	232946.0	26114.0	-5705749.0
16	14	52	2	196	151.0	257765.0	26814.0	-5705600.0
16	14	52	2	197	152.0	282254.0	27813.0	-5706778.0
16	14	52	2	197	153.0	315634.0	28514.0	-5706527.0
16	14	52	2	197	154.0	356447.0	28795.0	-5705708.0
16	14	52	2	197	155.0	397109.0	29142.0	-5705751.0
16	14	52	2	198	156.0	423295.0	29073.0	-5707150.0
16	14	52	2	198	157.0	442412.0	29401.0	-5706851.0
16	14	52	2	198	158.0	474371.0	29279.0	-5706054.0
16	14	52	2	198	159.0	523263.0	29702.0	-5706117.0
16	14	52	2	199	160.0	572314.0	29651.0	-5707169.0
16	14	52	2	199	162.0	672656.0	29144.0	-5705912.0
16	14	52	2	199	163.0	673542.0	28433.0	-5705352.0
16	14	52	2	199	164.0	613638.0	27951.0	-5706292.0
16	14	52	2	200	165.0	503151.0	27918.0	-5706527.0
16	14	52	2	200	166.0	375119.0	27977.0	-5705771.0
16	14	52	2	200	167.0	230976.0	28076.0	-5705500.0
16	14	52	2	201	168.0	36289.0	27731.0	-5706701.0
16	14	52	2	201	169.0	-237710.0	27533.0	-5706468.0
16	14	52	2	201	170.0	-716379.0	27984.0	-5705652.0
16	14	52	2	201	171.0	-1455108.0	28116.0	-5705451.0
16	14	52	2	202	172.0	-2237576.0	28064.0	-5706773.0
16	14	52	2	202	173.0	-2653507.0	27656.0	-5706474.0
16	14	52	2	202	174.0	-2250159.0	27663.0	-5705759.0
16	14	52	2	203	175.0	-965937.0	26854.0	-5705330.0
16	14	52	2	203	176.0	550611.0	26878.0	-5706641.0
16	14	52	2	203	177.0	1657998.0	26326.0	-5707052.0
16	14	52	2	203	178.0	2108088.0	25360.0	-5706374.0
16	14	52	2	204	179.0	1947396.0	24380.0	-5705598.0
16	14	52	2	204	180.0	1473857.0	23017.0	-5706446.0
16	14	52	2	204	181.0	863157.0	22304.0	-5706836.0
16	14	52	2	204	182.0	224261.0	22246.0	-5706071.0
16	14	52	2	205	184.0	-626824.0	20995.0	-5705665.0
16	14	52	2	271	185.0	-744768.0	20165.0	-5706329.0
16	14	52	2	272	186.0	-706666.0	18713.0	-5705746.0
16	14	52	2	272	187.0	-598904.0	17915.0	-5705139.0
16	14	52	2	272	188.0	-479564.0	17003.0	-5706272.0
16	14	52	2	273	189.0	-364121.0	15691.0	-5706475.0
16	14	52	2	273	190.0	-270251.0	15263.0	-5705774.0
16	14	52	2	274	191.0	-203239.0	14386.0	-5705093.0
16	14	52	2	274	192.0	-153932.0	13763.0	-5706082.0
16	14	52	2	274	193.0	-123332.0	13370.0	-5706382.0
16	14	52	2	275	194.0	-108644.0	12769.0	-5705702.0
16	14	52	2	275	195.0	-96043.0	12084.0	-5704863.0
16	14	52	2	275	196.0	-77734.0	11024.0	-5705372.0
16	14	52	2	275	197.0	-66183.0	10147.0	-5706407.0
16	14	52	2	276	198.0	-45690.0	8694.0	-5705856.0
16	14	52	2	276	199.0	-8920.0	7754.0	-5705076.0
16	14	52	2	276	200.0	24306.0	6668.0	-5705406.0
16	14	52	2	276	201.0	61243.0	5798.0	-5706482.0
16	14	52	2	277	202.0	86983.0	5369.0	-5705924.0
16	14	52	2	277	203.0	98706.0	4585.0	-5705196.0
16	14	52	2	277	204.0	84193.0	3983.0	-5705624.0
16	14	52	2	278	205.0	61879.0	3266.0	-5706562.0
16	14	52	2	278	207.0	94552.0	2065.0	-5705228.0
16	14	52	2	278	208.0	164611.0	1664.0	-5705993.0
16	14	52	2	279	209.0	267902.0	838.0	-5706891.0
16	14	52	2	279	210.0	381149.0	33.0	-5706211.0
16	14	52	2	279	211.0	484564.0	-624.0	-5705452.0
16	14	52	2	279	212.0	556011.0	-1157.0	-5705181.0
16	14	52	2	280	213.0	590949.0	-1536.0	-5706654.0
16	14	52	2	280	214.0	597826.0	-1654.0	-5706462.0
16	14	52	2	348	215.0	586122.0	-1183.0	-5705724.0
16	14	52	2	348	216.0	563709.0	-1601.0	-5705182.0
16	14	52	2	349	217.0	533691.0	-2237.0	-5706546.0
16	14	52	2	349	218.0	494682.0	-3046.0	-5706759.0
16	14	52	2	349	219.0	455746.0	-4322.0	-5706053.0
16	14	52	2	350	220.0	416090.0	-5118.0	-5705611.0
16	14	52	2	350	221.0	390426.0	-5255.0	-5706786.0
16	14	52	2	350	222.0	379167.0	-5711.0	-5706610.0
16	14	52	2	351	223.0	368005.0	-6452.0	-5705877.0
16	14	52	2	351	224.0	345691.0	-6712.0	-5705289.0
16	14	52	2	351	225.0	326029.0	-7315.0	-5706548.0
16	14	52	2	351	226.0	317198.0	-7580.0	-5706646.0
16	14	52	2	352	227.0	310264.0	-8434.0	-5705937.0
16	14	52	2	352	229.0	298489.0	-9994.0	-5706522.0
16	14	52	2	352	230.0	288790.0	-10699.0	-5706456.0
16	14	52	2	352	231.0	275038.0	-11847.0	-5705756.0
16	14	52	2	353	232.0	261808.0	-12266.0	-5705020.0
16	14	52	2	353	233.0	236761.0	-11719.0	-5705774.0
16	14	52	2	353	234.0	202304.0	-11494.0	-5706313.0
16	14	52	2	354	235.0	156614.0	-11838.0	-5705668.0
16	14	52	2	354	236.0	90011.0	-12498.0	-5704944.0
16	14	52	2	354	252.0	-226565.0	-13269.0	-5705771.0
16	14	52	2	355	253.0	-183511.0	-13677.0	-5706274.0
16	14	52	2	355	254.0	-146643.0	-13388.0	-5705496.0
16	14	52	2	355	255.0	-111941.0	-12924.0	-5704869.0
16	14	52	2	355	0.0	-71599.0	-12769.0	-5705521.0
16	14	52	2	356	1.0	-26450.0	-12536.0	-5706383.0
16	14	52	2	426	2.0	12968.0	-12255.0	-5705629.0
16	14	52	2	427	3.0	53034.0	-12406.0	-5704912.0
16	14	52	2	427	4.0	83554.0	-11662.0	-5705342.0
16	14	52	2	427	5.0	106033.0	-11007.0	-5706417.0
16	14	52	2	428	6.0	132099.0	-11457.0	-5705809.0
16	14	52	2	428	7.0	161017.0	-11069.0	-5705097.0
16	14	52	2	429	8.0	189923.0	-11012.0	-5704834.0
16	14	52	2	429	9.0	207593.0	-11078.0	-5706275.0
16	14	52	2	429	10.0	220609.0	-10469.0	-5706117.0
16	14	52	2	430	11.0	226783.0	-9899.0	-5705414.0
16	14	52	2	430	12.0	240409.0	-9436.0	-5705527.0
16	14	52	2	430	13.0	263840.0	-9840.0	-5706669.0
16	14	52	2	431	14.0	283929.0	-9470.0	-5706126.0
16	14	52	2	431	15.0	304441.0	-8740.0	-5705364.0
16	14	52	2	431	16.0	324869.0	-8164.0	-5705138.0
16	14	52	2	431	18.0	344753.0	-7666.0	-5706409.0
16	14	52	2	432	19.0	331581.0	-7574.0	-5705599.0
16	14	52	2	432	20.0	296666.0	-7817.0	-5705034.0
16	14	52	2	432	21.0	245803.0	-7752.0	-5705994.0
16	14	52	2	433	22.0	193821.0	-7282.0	-5706447.0
16	14	52	2	433	23.0	139328.0	-6911.0	-5705677.0
16	14	52	2	433	24.0	84101.0	-6932.0	-5705144.0
16	14	52	2	433	25.0	10532.0	-6349.0	-5706167.0
16	14	52	2	434	26.0	-58918.0	-5476.0	-5706674.0
16	14	52	2	434	27.0	-56230.0	-4170.0	-5705903.0
16	14	52	2	434	28.0	684.0	-4258.0	-5705274.0
16	14	52	2	435	29.0	123022.0	-3793.0	-5705787.0
16	14	52	2	435	30.0	295404.0	-3307.0	-5706506.0
16	14	52	2	435	31.0	310655.0	-3130.0	-5705766.0
16	14	52	2	435	32.0	226070.0	-3366.0	-5705284.0
16	14	52	2	436	33.0	156211.0	-3507.0	-5706261.0
16	14	52	2	436	34.0	118840.0	-3176.0	-5706564.0
16	14	52	2	436	35.0	88151.0	-2927.0	-5705717.0
16	14	52	2	437	36.0	32842.0	-2837.0	-5705033.0
16	14	52	2	437	37.0	-9993.0	-2331.0	-5705394.0
16	14	52	2	437	38.0	-40968.0	-2512.0	-5706453.0
16	14	52	2	438	39.0	-59957.0	-2696.0	-5705834.0
16	14	52	2	438	41.0	-109150.0	-2585.0	-5705560.0
16	14	52	2	438	42.0	-168010.0	-3186.0	-5706593.0
16	14	52	2	439	43.0	-221934.0	-3079.0	-5705960.0
16	14	52	2	439	44.0	-271326.0	-2998.0	-5705307.0
16	14	52	2	439	45.0	-329922.0	-3013.0	-5706031.0
16	14	52	2	440	46.0	-398250.0	-2538.0	-5706721.0
16	14	52	2	506	47.0	-465737.0	-2197.0	-5705983.0
16	14	52	2	507	48.0	-530126.0	-1708.0	-5705246.0
16	14	52	2	507	49.0	-586837.0	-539.0	-5705418.0
16	14	52	2	508	50.0	-617999.0	-604.0	-5706328.0
16	14	52	2	508	51.0	-620630.0	-1329.0	-5705700.0
16	14	52	2	509	52.0	-604803.0	-1816.0	-5704935.0
16	14	52	2	509	53.0	-563509.0	-2149.0	-5705403.0
16	14	52	2	509	54.0	-519437.0	-2144.0	-5706450.0
16	14	52	2	510	55.0	-485313.0	-1974.0	-5705877.0
16	14	52	2	510	56.0	-444894.0	-1600.0	-5705083.0
16	14	52	2	510	57.0	-396881.0	-1867.0	-5704771.0
16	14	52	2	511	58.0	-353827.0	-1788.0	-5705968.0
16	14	52	2	511	59.0	-309942.0	-1467.0	-5705926.0
16	14	52	2	511	60.0	-268034.0	-1124.0	-5705101.0
16	14	52	2	511	61.0	-225997.0	-1301.0	-5705144.0
16	14	52	2	512	63.0	-160419.0	-1429.0	-5705880.0
16	14	52	2	512	64.0	-119724.0	-1889.0	-5705093.0
16	14	52	2	512	65.0	-60967.0	-2596.0	-5705237.0
16	14	52	2	512	66.0	-3409.0	-2819.0	-5706437.0
16	14	52	2	513	67.0	60356.0	-2721.0	-5706039.0
16	14	52	2	513	68.0	123677.0	-2588.0	-5705205.0
16	14	52	2	513	69.0	181533.0	-2772.0	-5704773.0
16	14	52	2	514	70.0	234086.0	-2629.0	-5705962.0
16	14	52	2	514	71.0	280788.0	-1894.0	-5706186.0
16	14	52	2	514	72.0	312533.0	-939.0	-5705403.0
16	14	52	2	515	73.0	326908.0	-1522.0	-5705144.0
16	14	52	2	515	74.0	323614.0	-1909.0	-5706637.0
16	14	52	2	515	75.0	311326.0	-2031.0	-5706660.0
16	14	52	2	516	76.0	291958.0	-1537.0	-5705852.0
16	14	52	2	516	77.0	276571.0	-1472.0	-5705329.0
16	14	52	2	516	78.0	258886.0	-1571.0	-5706389.0
16	14	52	2	517	79.0	250200.0	-1746.0	-5706694.0
16	14	52	2	517	80.0	263578.0	-1587.0	-5705906.0
16	14	52	2	518	81.0	297203.0	-1899.0	-5705296.0
16	14	52	2	518	82.0	343513.0	-2175.0	-5706139.0
16	14	52	2	519	83.0	387834.0	-1912.0	-5706625.0
16	14	52	2	519	84.0	425028.0	-1881.0	-5705897.0
16	14	52	2	519	86.0	488888.0	-2297.0	-5705659.0
16	14	52	2	520	87.0	510153.0	-3006.0	-5706772.0
16	14	52	2	520	88.0	519644.0	-3064.0	-5706200.0
16	14	52	2	521	89.0	556737.0	-2371.0	-5705428.0
16	14	52	2	521	90.0	649725.0	-2223.0	-5705599.0
16	14	52	2	521	91.0	786461.0	-3027.0	-5706685.0
16	14	52	2	584	92.0	917578.0	-2801.0	-5706229.0
16	14	52	2	585	93.0	1011321.0	-2637.0	-5705511.0
16	14	52	2	585	94.0	1076518.0	-2201.0	-5706196.0
16	14	52	2	585	95.0	1064173.0	-1798.0	-5706897.0
16	14	52	2	586	96.0	580520.0	-1574.0	-5706199.0
16	14	52	2	586	97.0	-278172.0	-1456.0	-5705309.0
16	14	52	2	586	98.0	-1272926.0	-1780.0	-5705551.0
16	14	52	2	587	99.0	-2291299.0	-2351.0	-5706459.0
16	14	52	2	587	100.0	-3036861.0	-2199.0	-5705877.0
16	14	52	2	587	101.0	-3304861.0	-1581.0	-5705031.0
16	14	52	2	587	102.0	-2881211.0	-2329.0	-5705051.0
16	14	52	2	588	103.0	-1771644.0	-2439.0	-5706416.0
16	14	52	2	588	104.0	-391196.0	-2609.0	-5706257.0
16	14	52	2	588	105.0	796068.0	-2102.0	-5705553.0
16	14	52	2	589	106.0	1638199.0	-1131.0	-5705312.0
16	14	52	2	589	108.0	3007052.0	-503.0	-5706620.0
16	14	52	2	589	109.0	3412993.0	-746.0	-5705852.0
16	14	52	2	590	110.0	3272551.0	-1284.0	-5705528.0
16	14	52	2	590	111.0	2555778.0	-1264.0	-5706709.0
16	14	52	2	590	112.0	1388301.0	-1167.0	-5706533.0
16	14	52	2	591	113.0	90799.0	-1066.0	-5705579.0
16	14	52	2	591	114.0	-1084039.0	-1012.0	-5705324.0
16	14	52	2	591	115.0	-2061041.0	-1090.0	-5706462.0
16	14	52	2	650	116.0	-2647236.0	-579.0	-5706093.0
16	14	52	2	651	117.0	-2787911.0	425.0	-5705259.0
16	14	52	2	651	118.0	-2638966.0	350.0	-5704641.0
16	14	52	2	651	119.0	-2249146.0	442.0	-5705590.0
16	14	52	2	652	120.0	-1656985.0	437.0	-5706202.0
16	14	52	2	652	121.0	-988668.0	101.0	-5705544.0
16	14	52	2	652	122.0	-432632.0	-739.0	-5705155.0
16	14	52	2	653	123.0	-1271.0	-860.0	-5706506.0
16	14	52	2	653	124.0	332368.0	-990.0	-5706595.0
16	14	52	2	653	125.0	462308.0	-1121.0	-5705840.0
16	14	52	2	654	126.0	422434.0	-1091.0	-5705164.0
16	14	52	2	654	127.0	334326.0	-888.0	-5706056.0
16	14	52	2	654	128.0	276131.0	-492.0	-5706533.0
16	14	52	2	654	129.0	254739.0	215.0	-5705829.0
16	14	52	2	655	131.0	259613.0	16.0	-5705629.0
16	14	52	2	655	132.0	257888.0	-981.0	-5706491.0
16	14	52	2	655	133.0	251954.0	-867.0	-5705902.0
16	14	52	2	655	134.0	234869.0	-657.0	-5705112.0
16	14	52	2	656	135.0	99849.0	-491.0	-5705594.0
16	14	52	2	656	136.0	-145424.0	-231.0	-5706523.0
16	14	52	2	656	137.0	-379386.0	178.0	-5705946.0
16	14	52	2	657	138.0	-536897.0	762.0	-5705111.0
16	14	52	2	657	139.0	-597042.0	1718.0	-5705469.0
16	14	52	2	657	140.0	-558119.0	1639.0	-5706294.0
16	14	52	2	657	141.0	-429995.0	1615.0	-5705736.0
16	14	52	2	658	142.0	-247586.0	1981.0	-5705040.0
16	14	52	2	658	143.0	-54215.0	1884.0	-5706003.0
16	14	52	2	658	144.0	119956.0	1426.0	-5706264.0
16	14	52	2	659	145.0	259778.0	1717.0	-5705589.0
16	14	52	2	659	146.0	346079.0	1279.0	-5704767.0
16	14	52	2	659	147.0	375740.0	1468.0	-5704813.0
16	14	52	2	660	148.0	369156.0	1387.0	-5705991.0
16	14	52	2	660	149.0	361664.0	1564.0	-5705577.0
16	14	52	2	660	150.0	346578.0	1962.0	-5704819.0
16	14	52	2	660	151.0	306106.0	1709.0	-5705065.0
16	14	52	2	661	153.0	221216.0	1743.0	-5705437.0
16	14	52	2	661	154.0	194645.0	1301.0	-5704711.0
16	14	52	2	661	155.0	179991.0	1154.0	-5705146.0
16	14	52	2	662	156.0	171980.0	1571.0	-5705499.0
16	14	52	2	662	157.0	180095.0	2089.0	-5704840.0
16	14	52	2	663	158.0	215128.0	1979.0	-5704504.0
16	14	52	2	719	159.0	269144.0	2299.0	-5705833.0
16	14	52	2	719	160.0	337960.0	2747.0	-5705586.0
16	14	52	2	720	161.0	412226.0	3149.0	-5704852.0
16	14	52	2	720	162.0	480507.0	3544.0	-5704642.0
16	14	52	2	720	163.0	520036.0	3576.0	-5705947.0
16	14	52	2	721	164.0	524499.0	3759.0	-5705646.0
16	14	52	2	721	165.0	510002.0	3719.0	-5704892.0
16	14	52	2	721	166.0	486038.0	3891.0	-5704196.0
16	14	52	2	721	167.0	461262.0	4019.0	-5704484.0
16	14	52	2	722	168.0	431693.0	4268.0	-5705064.0
16	14	52	2	722	169.0	406514.0	4007.0	-5704417.0
16	14	52	2	722	170.0	376112.0	4108.0	-5704481.0
16	14	52	2	722	171.0	339790.0	3966.0	-5705874.0
16	14	52	2	723	172.0	306577.0	3650.0	-5705416.0
16	14	52	2	723	173.0	275193.0	3356.0	-5704713.0
16	14	52	2	723	176.0	168039.0	4436.0	-5705393.0
16	14	52	2	794	177.0	121274.0	3703.0	-5704632.0
16	14	52	2	794	178.0	61921.0	3255.0	-5704501.0
16	14	52	2	794	179.0	12.0	3584.0	-5705621.0
16	14	52	2	795	180.0	-58264.0	3703.0	-5705271.0
16	14	52	2	795	181.0	-119939.0	4118.0	-5704496.0
16	14	52	2	795	182.0	-182921.0	5147.0	-5704291.0
16	14	52	2	795	183.0	-245681.0	5151.0	-5705686.0
16	14	52	2	795	184.0	-299166.0	4904.0	-5705534.0
16	14	52	2	796	185.0	-339569.0	4693.0	-5704729.0
16	14	52	2	796	186.0	-361496.0	4868.0	-5704317.0
16	14	52	2	796	187.0	-360355.0	5186.0	-5705416.0
16	14	52	2	796	188.0	-352022.0	5803.0	-5705426.0
16	14	52	2	797	189.0	-349564.0	6281.0	-5704586.0
16	14	52	2	797	190.0	-341816.0	6533.0	-5704328.0
16	14	52	2	797	191.0	-326460.0	7038.0	-5705482.0
16	14	52	2	797	198.0	-147247.0	13049.0	-5703728.0
16	14	52	2	798	199.0	-119481.0	12884.0	-5704499.0
16	14	52	2	798	200.0	-100986.0	13503.0	-5705252.0
16	14	52	2	798	201.0	-91264.0	13799.0	-5704499.0
16	14	52	2	798	202.0	-71496.0	14359.0	-5704032.0
16	14	52	2	799	203.0	-32860.0	15364.0	-5705268.0
16	14	52	2	799	204.0	15841.0	16517.0	-5705494.0
16	14	52	2	799	205.0	48881.0	17861.0	-5704659.0
16	14	52	2	799	206.0	60156.0	19018.0	-5703974.0
16	14	52	2	800	207.0	61559.0	20516.0	-5704542.0
16	14	52	2	800	208.0	70123.0	21587.0	-5705533.0
16	14	52	2	800	209.0	85001.0	21898.0	-5704849.0
16	14	52	2	800	210.0	98136.0	22614.0	-5704091.0
16	14	52	2	801	211.0	108794.0	22936.0	-5704336.0
16	14	52	2	801	212.0	131060.0	23669.0	-5705712.0
16	14	52	2	801	213.0	170119.0	24783.0	-5705256.0
16	14	52	2	801	214.0	209559.0	25719.0	-5704483.0
16	14	52	2	802	215.0	259764.0	26201.0	-5704362.0
16	14	52	2	802	216.0	324232.0	27101.0	-5705667.0
16	14	52	2	802	217.0	389834.0	28094.0	-5705431.0
16	14	52	2	802	218.0	436162.0	28383.0	-5704639.0
16	14	52	2	803	220.0	529287.0	29403.0	-5705620.0
16	14	52	2	803	221.0	576093.0	29729.0	-5705357.0
16	14	52	2	803	222.0	615296.0	28829.0	-5704580.0
16	14	52	2	803	223.0	654324.0	28863.0	-5704559.0
16	14	52	2	804	224.0	679046.0	29014.0	-5705845.0
16	14	52	2	804	225.0	681898.0	29406.0	-5705512.0
16	14	52	2	804	226.0	644126.0	29564.0	-5704665.0
16	14	52	2	865	227.0	559328.0	30015.0	-5704115.0
16	14	52	2	865	228.0	438846.0	30403.0	-5705104.0
16	14	52	2	866	229.0	287064.0	30963.0	-5705407.0
16	14	52	2	866	230.0	121954.0	30619.0	-5704579.0
16	14	52	2	866	231.0	-54794.0	29916.0	-5704094.0
16	14	52	2	867	232.0	-286188.0	29476.0	-5704896.0
16	14	52	2	867	233.0	-672614.0	28584.0	-5704909.0
16	14	52	2	867	234.0	-1306474.0	28034.0	-5704031.0
16	14	52	2	867	235.0	-2041403.0	27691.0	-5703641.0
16	14	52	2	868	236.0	-2503608.0	27578.0	-5704759.0
16	14	52	2	868	237.0	-2265733.0	27379.0	-5704731.0
16	14	52	2	869	238.0	-1143392.0	27382.0	-5704011.0
16	14	52	2	869	239.0	425060.0	27073.0	-5703664.0
16	14	52	2	869	240.0	1655802.0	26459.0	-5704837.0
16	14	52	2	869	241.0	2247562.0	26485.0	-5705221.0
16	14	52	2	870	243.0	1773745.0	25030.0	-5703727.0
16	14	52	2	870	244.0	1123657.0	23403.0	-5704489.0
16	14	52	2	870	245.0	387800.0	22364.0	-5704927.0
16	14	52	2	871	246.0	-248833.0	22199.0	-5704144.0
16	14	52	2	871	247.0	-671899.0	21508.0	-5703412.0
16	14	52	2	871	248.0	-892637.0	20912.0	-5704089.0
16	14	52	2	871	249.0	-971239.0	20029.0	-5704882.0
16	14	52	2	872	250.0	-979174.0	19312.0	-5704217.0
16	14	52	2	872	251.0	-950104.0	18958.0	-5703643.0
16	14	52	2	872	252.0	-864548.0	17409.0	-5704680.0
16	14	52	2	873	253.0	-734863.0	16448.0	-5704911.0
16	14	52	2	873	254.0	-588472.0	15622.0	-5704197.0
16	14	52	2	873	255.0	-448096.0	15268.0	-5703429.0
16	14	52	2	874	0.0	-349376.0	14240.0	-5704071.0
16	14	52	2	874	1.0	-301292.0	12927.0	-5705024.0
16	14	52	2	874	2.0	-292781.0	12018.0	-5704395.0
16	14	52	2	875	3.0	-283777.0	10793.0	-5703555.0
16	14	52	2	875	4.0	-263554.0	10091.0	-5703738.0
16	14	52	2	875	5.0	-238875.0	9064.0	-5704815.0
16	14	52	2	931	6.0	-195041.0	7954.0	-5704366.0
16	14	52	2	932	7.0	-125931.0	6823.0	-5703551.0
16	14	52	2	932	9.0	13388.0	5511.0	-5704759.0
16	14	52	2	932	10.0	-34204.0	4598.0	-5704410.0
16	14	52	2	933	11.0	-105327.0	3846.0	-5703601.0
16	14	52	2	933	12.0	-179196.0	3331.0	-5703714.0
16	14	52	2	933	13.0	-246317.0	2624.0	-5704954.0
16	14	52	2	934	14.0	-293554.0	2018.0	-5704571.0
16	14	52	2	934	15.0	-286889.0	1321.0	-5703766.0
16	14	52	2	934	16.0	-241276.0	339.0	-5703705.0
16	14	52	2	934	17.0	-155647.0	-29.0	-5704827.0
16	14	52	2	935	18.0	-19046.0	290.0	-5704474.0
16	14	52	2	935	19.0	138952.0	93.0	-5703671.0
16	14	52	2	935	20.0	293556.0	-1039.0	-5703172.0
16	14	52	2	936	21.0	431767.0	-2227.0	-5704457.0
16	14	52	2	936	22.0	555481.0	-3064.0	-5704868.0
16	14	52	2	936	23.0	652260.0	-3366.0	-5704119.0
16	14	52	2	937	24.0	712302.0	-3537.0	-5703480.0
16	14	52	2	937	25.0	740646.0	-4261.0	-5704387.0
16	14	52	2	937	26.0	728057.0	-5024.0	-5704941.0
16	14	52	2	937	27.0	686893.0	-5833.0	-5704208.0
16	14	52	2	938	28.0	635116.0	-6469.0	-5703580.0
16	14	52	2	938	29.0	564126.0	-6824.0	-5704520.0
16	14	52	2	938	30.0	488496.0	-6927.0	-5705083.0
16	14	52	2	938	32.0	373592.0	-7413.0	-5703682.0
16	14	52	2	939	33.0	360771.0	-8337.0	-5704504.0
16	14	52	2	939	34.0	363036.0	-9476.0	-5705107.0
16	14	52	2	939	35.0	341883.0	-10498.0	-5704424.0
16	14	52	2	940	36.0	279704.0	-11295.0	-5703673.0
16	14	52	2	940	37.0	206559.0	-11324.0	-5704369.0
16	14	52	2	999	38.0	158652.0	-11096.0	-5705085.0
16	14	52	2	999	39.0	142846.0	-10956.0	-5704447.0
16	14	52	2	999	40.0	140384.0	-10995.0	-5703641.0
16	14	52	3	0	41.0	146861.0	-10841.0	-5703830.0
16	14	52	3	0	42.0	163710.0	-10942.0	-5704867.0
16	14	52	3	0	43.0	187109.0	-11720.0	-5704418.0
16	14	52	3	0	44.0	202731.0	-12844.0	-5703658.0
16	14	52	3	1	45.0	224810.0	-12322.0	-5704035.0
16	14	52	3	1	46.0	271179.0	-12363.0	-5704814.0
16	14	52	3	1	47.0	314863.0	-13247.0	-5704232.0
16	14	52	3	2	48.0	333346.0	-13684.0	-5703423.0
16	14	52	3	2	49.0	313445.0	-13896.0	-5703784.0
16	14	52	3	2	50.0	276622.0	-13734.0	-5705176.0
16	14	52	3	2	51.0	242959.0	-14078.0	-5704749.0
16	14	52	3	3	52.0	215544.0	-13849.0	-5703936.0
16	14	52	3	3	54.0	147049.0	-13200.0	-5704728.0
16	14	52	3	3	55.0	92730.0	-13482.0	-5704790.0
16	14	52	3	4	56.0	51704.0	-14268.0	-5703957.0
16	14	52	3	4	57.0	31346.0	-14229.0	-5703546.0
16	14	52	3	4	58.0	25812.0	-14403.0	-5704777.0
16	14	52	3	4	59.0	27824.0	-14407.0	-5704881.0
16	14	52	3	5	60.0	22127.0	-14272.0	-5704093.0
16	14	52	3	5	61.0	6403.0	-13900.0	-5703686.0
16	14	52	3	5	62.0	-11656.0	-13364.0	-5704914.0
16	14	52	3	5	63.0	-28029.0	-12762.0	-5704973.0
16	14	52	3	66	64.0	-45994.0	-12681.0	-5704186.0
16	14	52	3	66	65.0	-71544.0	-12654.0	-5703541.0
16	14	52	3	67	66.0	-91807.0	-12372.0	-5704375.0
16	14	52	3	67	67.0	-121498.0	-11712.0	-5704841.0
16	14	52	3	67	68.0	-153373.0	-11177.0	-5704144.0
16	14	52	3	68	69.0	-183682.0	-11012.0	-5703361.0
16	14	52	3	68	70.0	-208977.0	-10949.0	-5703672.0
16	14	52	3	68	71.0	-221314.0	-10871.0	-5704761.0
16	14	52	3	69	72.0	-235107.0	-10474.0	-5704247.0
16	14	52	3	69	73.0	-242151.0	-10315.0	-5703446.0
16	14	52	3	69	74.0	-244342.0	-10200.0	-5703712.0
16	14	52	3	69	75.0	-251602.0	-10135.0	-5704926.0
16	14	52	3	70	77.0	-258243.0	-9459.0	-5703671.0
16	14	52	3	70	78.0	-251237.0	-9889.0	-5704055.0
16	14	52	3	70	79.0	-236096.0	-8501.0	-5705185.0
16	14	52	3	71	99.0	197698.0	-2748.0	-5705292.0
16	14	52	3	71	100.0	155512.0	-2657.0	-5705101.0
16	14	52	3	141	101.0	109082.0	-3116.0	-5704357.0
16	14	52	3	141	102.0	62123.0	-2633.0	-5703793.0
16	14	52	3	141	103.0	23755.0	-1965.0	-5704853.0
16	14	52	3	219	104.0	14158.0	-1911.0	-5705095.0
16	14	52	3	219	105.0	17888.0	-2326.0	-5704372.0
16	14	52	3	219	106.0	19773.0	-1689.0	-5703766.0
16	14	52	3	220	107.0	15019.0	-714.0	-5704937.0
16	14	52	3	220	108.0	-921.0	-717.0	-5705251.0
16	14	52	3	221	109.0	-23483.0	-939.0	-5704511.0
16	14	52	3	221	110.0	-67729.0	-976.0	-5703892.0
16	14	52	3	221	111.0	-109245.0	-966.0	-5704946.0
16	14	52	3	222	112.0	-153376.0	-1437.0	-5705317.0
16	14	52	3	222	113.0	-185441.0	-1470.0	-5704637.0
16	14	52	3	222	114.0	-211639.0	-1036.0	-5703899.0
16	14	52	3	223	115.0	-225384.0	-1239.0	-5704621.0
16	14	52	3	223	116.0	-235514.0	-1240.0	-5705315.0
16	14	52	3	223	122.0	-192952.0	-702.0	-5704047.0
16	14	52	3	223	144.0	-340907.0	-697.0	-5705283.0
16	14	52	3	224	167.0	572278.0	-1164.0	-5703700.0
16	14	52	3	224	168.0	1242569.0	-1984.0	-5705372.0
16	14	52	3	224	169.0	1676879.0	-2139.0	-5705366.0
16	14	52	3	225	170.0	2043165.0	-2297.0	-5704684.0
16	14	52	3	225	171.0	2294686.0	-1767.0	-5704316.0
16	14	52	3	225	172.0	2215293.0	-1432.0	-5705546.0
16	14	52	3	296	173.0	1774891.0	-1403.0	-5705337.0
16	14	52	3	297	174.0	1038745.0	-1237.0	-5704530.0
16	14	52	3	297	175.0	76204.0	-146.0	-5704232.0
16	14	52	3	297	176.0	-853660.0	-258.0	-5705521.0
16	14	52	3	297	177.0	-1601087.0	-592.0	-5705148.0
16	14	52	3	298	178.0	-2244212.0	-438.0	-5704302.0
16	14	52	3	298	179.0	-2515169.0	-257.0	-5703752.0
16	14	52	3	298	180.0	-2458577.0	-391.0	-5704828.0
16	14	52	3	299	181.0	-2265624.0	-171.0	-5704833.0
16	14	52	3	299	182.0	-1978846.0	78.0	-5704081.0
16	14	52	3	299	183.0	-1491294.0	-127.0	-5703739.0
16	14	52	3	300	184.0	-828164.0	-99.0	-5705151.0
16	14	52	3	300	185.0	-238654.0	-161.0	-5705354.0
16	14	52	3	300	186.0	241598.0	131.0	-5704616.0
16	14	52	3	301	187.0	597786.0	-92.0	-5704332.0
16	14	52	3	301	189.0	477073.0	-659.0	-5705520.0
16	14	52	3	301	190.0	210638.0	-1288.0	-5704692.0
16	14	52	3	301	191.0	3010.0	-1152.0	-5704272.0
16	14	52	3	302	192.0	-113856.0	-736.0	-5705371.0
16	14	52	3	302	193.0	-159332.0	-330.0	-5705410.0
16	14	52	3	302	194.0	-126146.0	-428.0	-5704624.0
16	14	52	3	303	195.0	-69267.0	-282.0	-5704123.0
16	14	52	3	303	196.0	-37605.0	-61.0	-5705049.0
16	14	52	3	303	197.0	-62355.0	582.0	-5705359.0
16	14	52	3	303	198.0	-130578.0	1034.0	-5704554.0
16	14	52	3	304	199.0	-184932.0	931.0	-5703916.0
16	14	52	3	304	200.0	-185356.0	1036.0	-5704644.0
16	14	52	3	304	201.0	-124868.0	1405.0	-5705328.0
16	14	52	3	305	202.0	-47144.0	922.0	-5704595.0
16	14	52	3	305	203.0	44093.0	822.0	-5704042.0
16	14	52	3	305	204.0	167811.0	847.0	-5704985.0
16	14	52	3	306	205.0	302432.0	1249.0	-5705408.0
16	14	52	3	306	206.0	404703.0	1251.0	-5704624.0
16	14	52	3	306	207.0	483309.0	984.0	-5704119.0
16	14	52	3	306	208.0	540252.0	1383.0	-5705241.0
16	14	52	3	307	209.0	558047.0	1713.0	-5705576.0
16	14	52	3	307	212.0	550729.0	1796.0	-5704589.0
16	14	52	3	307	213.0	546220.0	1259.0	-5705456.0
16	14	52	3	308	214.0	559453.0	1881.0	-5704826.0
16	14	52	3	308	215.0	573880.0	1750.0	-5704081.0
16	14	52	3	309	216.0	577464.0	1624.0	-5704670.0
16	14	52	3	309	217.0	590774.0	1691.0	-5705577.0
16	14	52	3	375	218.0	597141.0	1767.0	-5705000.0
16	14	52	3	375	219.0	591678.0	2494.0	-5704239.0
16	14	52	3	375	220.0	585730.0	2940.0	-5704828.0
16	14	52	3	376	221.0	574969.0	2907.0	-5705730.0
16	14	52	3	376	222.0	542260.0	2921.0	-5705135.0
16	14	52	3	376	223.0	492406.0	2586.0	-5704316.0
16	14	52	3	376	224.0	452683.0	2470.0	-5704594.0
16	14	52	3	377	225.0	417610.0	2704.0	-5705848.0
16	14	52	3	377	226.0	376212.0	3042.0	-5705394.0
16	14	52	3	377	227.0	351298.0	3258.0	-5704528.0
16	14	52	3	377	228.0	327379.0	3073.0	-5704629.0
16	14	52	3	378	229.0	293253.0	3269.0	-5705810.0
16	14	52	3	378	230.0	259343.0	3027.0	-5705408.0
16	14	52	3	378	231.0	230680.0	3199.0	-5704606.0
16	14	52	3	379	232.0	194397.0	3888.0	-5704357.0
16	14	52	3	379	234.0	128258.0	3759.0	-5705377.0
16	14	52	3	379	235.0	88973.0	2949.0	-5704604.0
16	14	52	3	380	236.0	37446.0	2747.0	-5704571.0
16	14	52	3	380	237.0	-24908.0	2554.0	-5705815.0
16	14	52	3	380	238.0	-95673.0	2844.0	-5705492.0
16	14	52	3	380	239.0	-168413.0	3099.0	-5704670.0
16	14	52	3	381	240.0	-224516.0	3109.0	-5704603.0
16	14	52	3	381	241.0	-271919.0	3283.0	-5705809.0
16	14	52	3	381	242.0	-320396.0	4187.0	-5705466.0
16	14	52	3	382	243.0	-363326.0	4860.0	-5704636.0
16	14	52	3	382	244.0	-395392.0	4716.0	-5704230.0
16	14	52	3	382	245.0	-411969.0	5044.0	-5705354.0
16	14	52	3	382	246.0	-428399.0	5420.0	-5705211.0
16	14	52	3	382	247.0	-441114.0	5406.0	-5704439.0
16	14	52	3	383	248.0	-445084.0	6000.0	-5703909.0
16	14	52	3	383	249.0	-447134.0	6436.0	-5705013.0
16	14	52	3	383	250.0	-438222.0	6902.0	-5705116.0
16	14	52	3	384	251.0	-409495.0	7734.0	-5704393.0
16	14	52	3	384	252.0	-371869.0	8449.0	-5703969.0
16	14	52	3	384	253.0	-338523.0	9296.0	-5705159.0
16	14	52	3	385	254.0	-309941.0	10196.0	-5704995.0
16	14	52	3	385	0.0	-268487.0	11068.0	-5703822.0
16	14	52	3	385	1.0	-267569.0	11664.0	-5705236.0
16	14	52	3	386	2.0	-276706.0	11151.0	-5705252.0
16	14	52	3	386	3.0	-276475.0	11596.0	-5704517.0
16	14	52	3	386	4.0	-268130.0	12776.0	-5703741.0
16	14	52	3	387	5.0	-252213.0	13618.0	-5704646.0
16	14	52	3	387	6.0	-237840.0	14833.0	-5705310.0
16	14	52	3	464	7.0	-223497.0	15489.0	-5704674.0
16	14	52	3	464	8.0	-204870.0	16526.0	-5703909.0
16	14	52	3	465	9.0	-181787.0	18758.0	-5704690.0
16	14	52	3	465	10.0	-152267.0	19679.0	-5705474.0
16	14	52	3	465	11.0	-111107.0	20435.0	-5704881.0
16	14	52	3	466	12.0	-63307.0	21738.0	-5704137.0
16	14	52	3	466	13.0	-17224.0	22833.0	-5704946.0
16	14	52	3	466	14.0	28088.0	23798.0	-5705772.0
16	14	52	3	466	15.0	80756.0	25048.0	-5705149.0
16	14	52	3	467	16.0	124314.0	26214.0	-5704403.0
16	14	52	3	467	17.0	148414.0	26710.0	-5705062.0
16	14	52	3	467	18.0	170082.0	28319.0	-5705736.0
16	14	52	3	468	19.0	200548.0	28760.0	-5705066.0
16	14	52	3	468	20.0	235743.0	28489.0	-5704281.0
16	14	52	3	468	21.0	259571.0	28664.0	-5704386.0
16	14	52	3	468	23.0	288846.0	30093.0	-5704901.0
16	14	52	3	469	24.0	319651.0	30089.0	-5704142.0
16	14	52	3	469	25.0	372629.0	30435.0	-5703925.0
16	14	52	3	469	26.0	433594.0	30771.0	-5705158.0
16	14	52	3	470	27.0	497624.0	31197.0	-5704887.0
16	14	52	3	470	28.0	560871.0	32093.0	-5704127.0
16	14	52	3	470	29.0	611674.0	32133.0	-5704028.0
16	14	52	3	471	30.0	656064.0	31670.0	-5705221.0
16	14	52	3	471	31.0	676384.0	31769.0	-5704822.0
16	14	52	3	471	32.0	680447.0	31265.0	-5704072.0
16	14	52	3	471	45.0	-2692794.0	26203.0	-5703302.0
16	14	52	3	472	46.0	-2189727.0	25289.0	-5704588.0
16	14	52	3	472	47.0	-700809.0	23960.0	-5704668.0
16	14	52	3	472	48.0	1048938.0	23216.0	-5704151.0
16	14	52	3	472	49.0	2330484.0	22048.0	-5703776.0
16	14	52	3	473	50.0	2835777.0	21285.0	-5705115.0
16	14	52	3	473	51.0	2637780.0	20879.0	-5705051.0
16	14	52	3	552	52.0	1984664.0	19976.0	-5704270.0
16	14	52	3	553	53.0	1169564.0	19686.0	-5703483.0
16	14	52	3	553	54.0	371633.0	19955.0	-5703812.0
16	14	52	3	553	55.0	-289306.0	19407.0	-5703599.0
16	14	52	3	554	56.0	-750484.0	18644.0	-5702897.0
16	14	52	3	554	57.0	-1000206.0	17459.0	-5703476.0
16	14	52	3	554	58.0	-1052101.0	16176.0	-5704585.0
16	14	52	3	554	59.0	-961576.0	14978.0	-5703951.0
16	14	52	3	555	60.0	-795103.0	14284.0	-5703366.0
16	14	52	3	555	61.0	-613741.0	13064.0	-5704180.0
16	14	52	3	555	62.0	-438284.0	11998.0	-5705214.0
16	14	52	3	556	63.0	-281216.0	11962.0	-5704445.0
16	14	52	3	556	64.0	-134917.0	11544.0	-5703745.0
16	14	52	3	556	65.0	-23097.0	11054.0	-5704090.0
16	14	52	3	556	66.0	33687.0	10055.0	-5705058.0
16	14	52	3	557	68.0	117806.0	8433.0	-5703641.0
16	14	52	3	557	75.0	20775.0	2504.0	-5704805.0
16	14	52	3	557	76.0	-97322.0	1398.0	-5704061.0
16	14	52	3	558	77.0	-204822.0	-206.0	-5703969.0
16	14	52	3	558	78.0	-285008.0	-278.0	-5705238.0
16	14	52	3	558	79.0	-312516.0	-566.0	-5704869.0
16	14	52	3	559	80.0	-283979.0	-1095.0	-5704082.0
16	14	52	3	559	81.0	-234065.0	-1931.0	-5703754.0
16	14	52	3	559	83.0	-90133.0	-3342.0	-5705012.0
16	14	52	3	559	84.0	-13288.0	-3980.0	-5704214.0
16	14	52	3	560	85.0	60807.0	-4769.0	-5703712.0
16	14	52	3	560	86.0	131241.0	-5635.0	-5704786.0
16	14	52	3	560	87.0	203583.0	-5897.0	-5705131.0
16	14	52	3	561	88.0	264404.0	-6766.0	-5704308.0
16	14	52	3	561	89.0	313746.0	-7330.0	-5703689.0
16	14	52	3	561	90.0	366421.0	-7019.0	-5704355.0
16	14	52	3	561	91.0	395998.0	-7124.0	-5705006.0
16	14	52	3	562	92.0	392907.0	-8241.0	-5704233.0
16	14	52	3	562	93.0	369528.0	-7878.0	-5703652.0
16	14	52	3	562	94.0	337381.0	-7839.0	-5704583.0
16	14	52	3	563	95.0	294916.0	-8256.0	-5705276.0
16	14	52	3	635	96.0	240025.0	-9297.0	-5704521.0
16	14	52	3	636	97.0	188341.0	-10056.0	-5703873.0
16	14	52	3	636	98.0	146236.0	-10794.0	-5704400.0
16	14	52	3	636	99.0	110444.0	-11852.0	-5705390.0
16	14	52	3	636	100.0	84154.0	-12558.0	-5704669.0
16	14	52	3	637	101.0	65978.0	-12602.0	-5703955.0
16	14	52	3	637	102.0	56430.0	-12421.0	-5704404.0
16	14	52	3	637	103.0	56758.0	-13181.0	-5705554.0
16	14	52	3	638	104.0	60943.0	-13534.0	-5704941.0
16	14	52	3	638	105.0	62333.0	-13579.0	-5704212.0
16	14	52	3	638	106.0	63244.0	-13946.0	-5704018.0
16	14	52	3	638	107.0	61538.0	-15352.0	-5705372.0
16	14	52	3	639	108.0	52568.0	-15354.0	-5705086.0
16	14	52	3	639	109.0	29037.0	-14100.0	-5704330.0
16	14	52	3	639	110.0	3061.0	-14263.0	-5704496.0
16	14	52	3	640	111.0	-23084.0	-14719.0	-5705727.0
16	14	52	3	640	112.0	-48808.0	-15356.0	-5705207.0
16	14	52	3	640	113.0	-45081.0	-15209.0	-5704437.0
16	14	52	3	640	114.0	-25257.0	-15699.0	-5704384.0
16	14	52	3	641	115.0	-42081.0	-16012.0	-5705662.0
16	14	52	3	641	116.0	-88762.0	-15655.0	-5705347.0
16	14	52	3	641	117.0	-113225.0	-14962.0	-5704561.0
16	14	52	3	642	118.0	-125525.0	-14693.0	-5704184.0
16	14	52	3	642	119.0	-158288.0	-15097.0	-5705476.0
16	14	52	3	642	120.0	-203469.0	-15298.0	-5705590.0
16	14	52	3	642	121.0	-234172.0	-15157.0	-5704730.0
16	14	52	3	643	122.0	-240771.0	-15589.0	-5704422.0
16	14	52	3	643	123.0	-234910.0	-15204.0	-5705696.0
16	14	52	3	643	124.0	-223786.0	-14262.0	-5705668.0
16	14	52	3	644	125.0	-206291.0	-14489.0	-5704842.0
16	14	52	3	644	126.0	-182244.0	-14442.0	-5704410.0
16	14	52	3	644	127.0	-154441.0	-14455.0	-5705525.0
16	14	52	3	644	128.0	-123034.0	-14316.0	-5705697.0
16	14	52	3	645	129.0	-93303.0	-14667.0	-5704865.0
16	14	52	3	645	130.0	-67980.0	-13754.0	-5704244.0
16	14	52	3	645	131.0	-48042.0	-13486.0	-5704903.0
16	14	52	3	646	132.0	-39996.0	-12994.0	-5705559.0
16	14	52	3	646	133.0	-43219.0	-12533.0	-5704798.0
16	14	52	3	646	134.0	-48540.0	-12017.0	-5704173.0
16	14	52	3	647	135.0	-55802.0	-12184.0	-5704968.0
16	14	52	3	647	136.0	-68133.0	-12246.0	-5705658.0
16	14	52	3	647	137.0	-77314.0	-12442.0	-5704940.0
16	14	52	3	647	138.0	-67081.0	-11926.0	-5704316.0
16	14	52	3	648	139.0	-40909.0	-11384.0	-5705209.0
16	14	52	3	648	140.0	4529.0	-10908.0	-5705537.0
16	14	52	3	648	141.0	52191.0	-9966.0	-5704772.0
16	14	52	3	649	142.0	90293.0	-9475.0	-5704112.0
16	14	52	3	649	143.0	101059.0	-8992.0	-5704919.0
16	14	52	3	718	144.0	89832.0	-9173.0	-5705579.0
16	14	52	3	719	145.0	73056.0	-9325.0	-5704883.0
16	14	52	3	719	146.0	61681.0	-8296.0	-5704090.0
16	14	52	3	719	147.0	65812.0	-7920.0	-5704225.0
16	14	52	3	720	148.0	68798.0	-7884.0	-5705279.0
16	14	52	3	720	149.0	80221.0	-7731.0	-5704790.0
16	14	52	3	720	150.0	95709.0	-7262.0	-5703990.0
16	14	52	3	721	151.0	85904.0	-7686.0	-5704431.0
16	14	52	3	721	152.0	32821.0	-7706.0	-5705317.0
16	14	52	3	721	153.0	-27392.0	-6996.0	-5704762.0
16	14	52	3	721	154.0	-55409.0	-5742.0	-5703963.0
16	14	52	3	722	155.0	-51640.0	-5597.0	-5704654.0
16	14	52	3	722	156.0	-21792.0	-5621.0	-5705645.0
16	14	52	3	722	157.0	20603.0	-5443.0	-5705069.0
16	14	52	3	722	158.0	65201.0	-5172.0	-5704262.0
16	14	52	3	723	159.0	108706.0	-5544.0	-5704678.0
16	14	52	3	723	160.0	153517.0	-5384.0	-5705566.0
16	14	52	3	723	161.0	194122.0	-4394.0	-5705046.0
16	14	52	3	724	162.0	228468.0	-3847.0	-5704237.0
16	14	52	3	724	163.0	253889.0	-3577.0	-5704356.0
16	14	52	3	724	164.0	278396.0	-3149.0	-5705603.0
16	14	52	3	724	165.0	306273.0	-3105.0	-5705240.0
16	14	52	3	725	166.0	347395.0	-3752.0	-5704402.0
16	14	52	3	725	167.0	405968.0	-4234.0	-5704274.0
16	14	52	3	725	168.0	465266.0	-3312.0	-5705333.0
16	14	52	3	725	169.0	506036.0	-2257.0	-5704977.0
16	14	52	3	726	170.0	533029.0	-2604.0	-5704187.0
16	14	52	3	726	171.0	543468.0	-2369.0	-5704416.0
16	14	52	3	726	172.0	548959.0	-2297.0	-5705552.0
16	14	52	3	726	173.0	547377.0	-2135.0	-5705077.0
16	14	52	3	727	174.0	538516.0	-3237.0	-5704293.0
16	14	52	3	727	175.0	515564.0	-3621.0	-5704490.0
16	14	52	3	727	176.0	480031.0	-2672.0	-5705689.0
16	14	52	3	728	177.0	435398.0	-1845.0	-5705227.0
16	14	52	3	728	178.0	384927.0	-1712.0	-5704442.0
16	14	52	3	728	179.0	336798.0	-2577.0	-5704312.0
16	14	52	3	729	180.0	292451.0	-2426.0	-5705537.0
16	14	52	3	729	181.0	257221.0	-2664.0	-5705141.0
16	14	52	3	799	182.0	234190.0	-3821.0	-5704393.0
16	14	52	3	800	183.0	218044.0	-3783.0	-5704289.0
16	14	52	3	800	184.0	210636.0	-3054.0	-5705614.0
16	14	52	3	801	185.0	214752.0	-2818.0	-5705212.0
16	14	52	3	801	186.0	235975.0	-2434.0	-5704462.0
16	14	52	3	801	187.0	258068.0	-2575.0	-5704642.0
16	14	52	3	801	188.0	270092.0	-2806.0	-5705897.0
16	14	52	3	802	189.0	272184.0	-3805.0	-5705376.0
16	14	52	3	802	190.0	269061.0	-3762.0	-5704683.0
16	14	52	3	802	191.0	254208.0	-3069.0	-5704642.0
16	14	52	3	803	192.0	229576.0	-2705.0	-5705269.0
16	14	52	3	803	193.0	191948.0	-2374.0	-5704663.0
16	14	52	3	803	194.0	156039.0	-1911.0	-5704024.0
16	14	52	3	804	195.0	120098.0	-1522.0	-5705162.0
16	14	52	3	804	196.0	89005.0	-2319.0	-5705917.0
16	14	52	3	804	197.0	65268.0	-3313.0	-5705155.0
16	14	52	3	804	198.0	53268.0	-2702.0	-5704504.0
16	14	52	3	805	199.0	55714.0	-934.0	-5705227.0
16	14	52	3	805	200.0	71036.0	-688.0	-5705906.0
16	14	52	3	805	201.0	90635.0	-1041.0	-5705141.0
16	14	52	3	805	202.0	112721.0	-1485.0	-5704564.0
16	14	52	3	806	203.0	132029.0	-1876.0	-5705471.0
16	14	52	3	806	204.0	135411.0	-2986.0	-5706091.0
16	14	52	3	806	205.0	109289.0	-3364.0	-5705312.0
16	14	52	3	807	206.0	59364.0	-3209.0	-5704669.0
16	14	52	3	807	207.0	-11164.0	-2569.0	-5705367.0
16	14	52	3	807	208.0	-80209.0	-2489.0	-5706311.0
16	14	52	3	808	209.0	-135841.0	-2920.0	-5705557.0
16	14	52	3	808	210.0	-170043.0	-2828.0	-5704859.0
16	14	52	3	808	211.0	-172481.0	-3202.0	-5704705.0
16	14	52	3	809	212.0	-144383.0	-3907.0	-5706124.0
16	14	52	3	809	213.0	-111151.0	-3354.0	-5705703.0
16	14	52	3	809	214.0	-87051.0	-2681.0	-5704993.0
16	14	52	3	810	215.0	-83841.0	-2327.0	-5704501.0
16	14	52	3	810	216.0	-105912.0	-2692.0	-5705790.0
16	14	52	3	810	217.0	-134086.0	-2162.0	-5705766.0
16	14	52	3	811	218.0	-147129.0	-2309.0	-5705067.0
16	14	52	3	883	219.0	-125571.0	-3239.0	-5705126.0
16	14	52	3	883	220.0	-51900.0	-3121.0	-5706509.0
16	14	52	3	884	221.0	72503.0	-2376.0	-5706038.0
16	14	52	3	884	222.0	266226.0	-1732.0	-5705341.0
16	14	52	3	884	223.0	529557.0	-1323.0	-5704971.0
16	14	52	3	884	224.0	838493.0	-1199.0	-5706321.0
16	14	52	3	885	225.0	1152113.0	-1077.0	-5706259.0
16	14	52	3	885	226.0	1493327.0	-1488.0	-5705522.0
16	14	52	3	885	227.0	1964053.0	-2071.0	-5704856.0
16	14	52	3	886	228.0	2224233.0	-1581.0	-5705484.0
16	14	52	3	886	229.0	1769253.0	-311.0	-5706229.0
16	14	52	3	886	230.0	758568.0	151.0	-5705411.0
16	14	52	3	886	231.0	-586555.0	-416.0	-5704716.0
16	14	52	3	887	232.0	-1924092.0	-1017.0	-5705584.0
16	14	52	3	887	233.0	-3086092.0	-1184.0	-5705946.0
16	14	52	3	887	234.0	-3640586.0	-2228.0	-5705084.0
16	14	52	3	887	235.0	-3211985.0	-1959.0	-5704581.0
16	14	52	3	888	236.0	-2017494.0	-646.0	-5705739.0
16	14	52	3	888	237.0	-728172.0	-421.0	-5706377.0
16	14	52	3	888	238.0	188533.0	-368.0	-5705671.0
16	14	52	3	889	239.0	849918.0	-440.0	-5705210.0
16	14	52	3	889	240.0	1567306.0	-427.0	-5706248.0
16	14	52	3	889	241.0	2264497.0	-902.0	-5706820.0
16	14	52	3	890	242.0	2616098.0	-1669.0	-5706066.0
16	14	52	3	890	243.0	2416418.0	-915.0	-5705351.0
16	14	52	3	890	244.0	1688146.0	416.0	-5705394.0
16	14	52	3	891	245.0	646428.0	-227.0	-5706469.0
16	14	52	3	891	246.0	-472674.0	-729.0	-5705774.0
16	14	52	3	891	247.0	-1523609.0	-743.0	-5704930.0
16	14	52	3	891	248.0	-2352671.0	-979.0	-5704859.0
16	14	52	3	892	249.0	-2879986.0	-1888.0	-5705756.0
16	14	52	3	892	250.0	-3010421.0	-1653.0	-5705146.0
16	14	52	3	892	251.0	-2767357.0	-390.0	-5704491.0
16	14	52	3	893	252.0	-2373199.0	-111.0	-5705012.0
16	14	52	3	893	253.0	-2006842.0	-344.0	-5705881.0
16	14	52	3	894	254.0	-1480977.0	-619.0	-5705255.0
16	14	52	3	894	255.0	-681036.0	-797.0	-5704627.0
16	14	52	3	894	0.0	77631.0	-1241.0	-5705297.0
16	14	52	3	895	1.0	627650.0	-1470.0	-5706312.0
16	14	52	3	895	2.0	978317.0	-1345.0	-5705704.0
16	14	52	3	895	3.0	1061504.0	334.0	-5704919.0
16	14	52	3	983	4.0	843385.0	774.0	-5704862.0
16	14	52	3	983	5.0	447252.0	797.0	-5706090.0
16	14	52	3	983	6.0	96754.0	593.0	-5705735.0
16	14	52	3	984	7.0	-88475.0	297.0	-5704901.0
16	14	52	3	984	8.0	-116284.0	-182.0	-5704849.0
16	14	52	3	984	9.0	-56257.0	-114.0	-5706113.0
16	14	52	3	984	10.0	2121.0	618.0	-5705819.0
16	14	52	3	985	11.0	-22104.0	937.0	-5705044.0
16	14	52	3	985	12.0	-132666.0	737.0	-5705128.0
16	14	52	3	985	13.0	-249202.0	694.0	-5706358.0
16	14	52	3	986	14.0	-306594.0	1248.0	-5705962.0
16	14	52	3	986	15.0	-278059.0	891.0	-5705187.0
16	14	52	3	986	16.0	-194541.0	264.0	-5705169.0
16	14	52	3	986	17.0	-73442.0	391.0	-5706385.0
16	14	52	3	987	18.0	67018.0	1483.0	-5706065.0
16	14	52	3	987	19.0	190886.0	2004.0	-5705213.0
16	14	52	3	987	20.0	284536.0	2381.0	-5704694.0
16	14	52	3	988	21.0	335921.0	2611.0	-5705664.0
16	14	52	3	988	22.0	346693.0	2793.0	-5705967.0
16	14	52	3	989	23.0	334040.0	2038.0	-5705156.0
16	14	52	3	989	24.0	312264.0	1999.0	-5704724.0
16	14	52	3	989	25.0	290671.0	3292.0	-5705847.0
16	14	52	3	989	26.0	259561.0	3909.0	-5706038.0
16	14	52	3	990	27.0	213641.0	4524.0	-5705236.0
16	14	52	3	990	28.0	165658.0	4169.0	-5704929.0
16	14	52	3	990	29.0	122645.0	4108.0	-5706134.0
16	14	52	3	991	30.0	90930.0	3344.0	-5706079.0
16	14	52	3	991	31.0	75537.0	2456.0	-5705299.0
16	14	52	3	991	32.0	76399.0	2988.0	-5704972.0
16	14	52	3	992	33.0	97673.0	3900.0	-5706215.0
16	14	52	3	992	34.0	131780.0	3908.0	-5706141.0
16	14	52	3	992	35.0	169791.0	4008.0	-5705327.0
16	14	52	3	992	36.0	209972.0	4722.0	-5704639.0
16	14	52	3	993	37.0	243241.0	4285.0	-5705484.0
16	14	52	3	993	38.0	280861.0	3285.0	-5706174.0
16	14	52	3	993	39.0	314032.0	3225.0	-5705485.0
16	14	52	3	994	40.0	330151.0	4423.0	-5704774.0
16	14	52	3	994	41.0	330218.0	4937.0	-5705667.0
16	14	52	3	994	42.0	314137.0	4696.0	-5706387.0
16	14	52	3	995	43.0	285436.0	4064.0	-5705695.0
16	14	52	3	995	44.0	246881.0	3844.0	-5705010.0
16	14	52	3	996	45.0	220143.0	3439.0	-5705823.0
16	14	52	3	996	46.0	196493.0	2913.0	-5706478.0
16	14	52	3	996	47.0	174214.0	3493.0	-5705803.0
16	14	52	3	997	48.0	157658.0	5038.0	-5705019.0
16	14	52	3	997	49.0	139504.0	5546.0	-5705662.0
16	14	52	3	997	50.0	115200.0	5383.0	-5706316.0
16	14	52	3	998	51.0	91299.0	5214.0	-5705678.0
16	14	52	3	998	52.0	79397.0	5286.0	-5704872.0
16	14	52	4	81	53.0	75789.0	4579.0	-5705347.0
16	14	52	4	82	54.0	83791.0	4631.0	-5706288.0
16	14	52	4	82	55.0	84518.0	5789.0	-5705738.0
16	14	52	4	82	56.0	74478.0	6160.0	-5704916.0
16	14	52	4	82	57.0	50115.0	5920.0	-5705106.0
16	14	52	4	83	58.0	30301.0	5495.0	-5706107.0
16	14	52	4	83	59.0	15372.0	5410.0	-5705667.0
16	14	52	4	83	60.0	5728.0	5377.0	-5704897.0
16	14	52	4	84	61.0	853.0	5298.0	-5705431.0
16	14	52	4	84	62.0	-20122.0	6402.0	-5706456.0
16	14	52	4	84	63.0	-55276.0	7386.0	-5705889.0
16	14	52	4	84	64.0	-96708.0	8028.0	-5705051.0
16	14	52	4	85	65.0	-131985.0	8742.0	-5705256.0
16	14	52	4	85	66.0	-166360.0	9426.0	-5706365.0
16	14	52	4	85	67.0	-195981.0	9629.0	-5705856.0
16	14	52	4	86	68.0	-219800.0	9646.0	-5705046.0
16	14	52	4	86	69.0	-231556.0	10654.0	-5704873.0
16	14	52	4	86	70.0	-231602.0	12527.0	-5706117.0
16	14	52	4	86	71.0	-223891.0	13952.0	-5705864.0
16	14	52	4	87	72.0	-200563.0	14549.0	-5705068.0
16	14	52	4	87	73.0	-159929.0	15553.0	-5704766.0
16	14	52	4	87	74.0	-122043.0	16556.0	-5705899.0
16	14	52	4	88	75.0	-86612.0	16938.0	-5705721.0
16	14	52	4	88	76.0	-50241.0	17906.0	-5704915.0
16	14	52	4	88	77.0	-19553.0	19231.0	-5705047.0
16	14	52	4	89	78.0	28.0	21094.0	-5706103.0
16	14	52	4	89	79.0	10426.0	22049.0	-5705631.0
16	14	52	4	89	80.0	16241.0	22887.0	-5704841.0
16	14	52	4	90	81.0	23734.0	24075.0	-5704816.0
16	14	52	4	90	82.0	35423.0	24873.0	-5705915.0
16	14	52	4	90	83.0	48487.0	24618.0	-5705389.0
16	14	52	4	91	84.0	59901.0	25615.0	-5704633.0
16	14	52	4	91	85.0	69061.0	27701.0	-5704726.0
16	14	52	4	91	86.0	79383.0	28653.0	-5705894.0
16	14	52	4	92	87.0	87971.0	29394.0	-5705319.0
16	14	52	4	92	88.0	90830.0	30244.0	-5704594.0
16	14	52	4	92	89.0	90161.0	30918.0	-5704033.0
16	14	52	4	93	90.0	93065.0	30323.0	-5705077.0
16	14	52	4	93	91.0	90381.0	30636.0	-5705176.0
16	14	52	4	93	92.0	86868.0	31317.0	-5704465.0
16	14	52	4	94	93.0	86939.0	32592.0	-5704324.0
16	14	52	4	94	94.0	102227.0	33770.0	-5705026.0
16	14	52	4	94	95.0	127878.0	34231.0	-5704469.0
16	14	52	4	95	96.0	159480.0	34211.0	-5704064.0
16	14	52	4	95	97.0	206516.0	33970.0	-5705335.0
16	14	52	4	95	98.0	269267.0	33554.0	-5705399.0
16	14	52	4	96	99.0	334383.0	33664.0	-5704599.0
16	14	52	4	96	100.0	385656.0	34357.0	-5703976.0
16	14	52	4	96	101.0	420054.0	34239.0	-5704749.0
16	14	52	4	97	102.0	441763.0	34121.0	-5705483.0
16	14	52	4	97	103.0	445669.0	33886.0	-5704747.0
16	14	52	4	98	104.0	425873.0	34165.0	-5704197.0
16	14	52	4	98	105.0	397150.0	32651.0	-5705045.0
16	14	52	4	98	106.0	311939.0	31534.0	-5705620.0
16	14	52	4	99	107.0	180240.0	31506.0	-5704844.0
16	14	52	4	99	108.0	30478.0	32404.0	-5704241.0
16	14	52	4	99	109.0	-121303.0	31773.0	-5705134.0
16	14	52	4	99	110.0	-283890.0	31118.0	-5705768.0
16	14	52	4	100	111.0	-493710.0	29950.0	-5704998.0
16	14	52	4	100	112.0	-858584.0	28478.0	-5704372.0
16	14	52	4	180	113.0	-1436328.0	27139.0	-5705206.0
16	14	52	4	181	114.0	-2032375.0	26477.0	-5705781.0
16	14	52	4	181	115.0	-2371847.0	26819.0	-5704911.0
16	14	52	4	181	116.0	-2093266.0	26644.0	-5704254.0
16	14	52	4	182	117.0	-1011099.0	25480.0	-5704695.0
16	14	52	4	182	118.0	399536.0	24779.0	-5705809.0
16	14	52	4	182	119.0	1560865.0	23834.0	-5705269.0
16	14	52	4	182	120.0	2167928.0	22408.0	-5704654.0
16	14	52	4	183	121.0	2184597.0	20648.0	-5704923.0
16	14	52	4	183	122.0	1831356.0	20311.0	-5705734.0
16	14	52	4	183	123.0	1232444.0	21261.0	-5705030.0
16	14	52	4	183	124.0	513494.0	20881.0	-5704274.0
16	14	52	4	184	125.0	-108744.0	19699.0	-5704961.0
16	14	52	4	184	126.0	-540231.0	18853.0	-5705888.0
16	14	52	4	184	127.0	-773489.0	17068.0	-5705148.0
16	14	52	4	184	128.0	-866060.0	15114.0	-5704415.0
16	14	52	4	184	129.0	-868476.0	14681.0	-5704771.0
16	14	52	4	185	130.0	-819301.0	14173.0	-5705727.0
16	14	52	4	185	131.0	-726838.0	13127.0	-5705115.0
16	14	52	4	185	132.0	-608530.0	12002.0	-5704359.0
16	14	52	4	186	133.0	-450192.0	10736.0	-5704393.0
16	14	52	4	186	134.0	-228080.0	9846.0	-5705631.0
16	14	52	4	186	135.0	-43256.0	8344.0	-5705220.0
16	14	52	4	186	136.0	35375.0	7335.0	-5704436.0
16	14	52	4	187	137.0	64059.0	6816.0	-5704379.0
16	14	52	4	187	138.0	117218.0	6946.0	-5705617.0
16	14	52	4	187	139.0	198115.0	5778.0	-5705281.0
16	14	52	4	188	140.0	281927.0	4748.0	-5704506.0
16	14	52	4	188	141.0	349944.0	3760.0	-5704344.0
16	14	52	4	188	142.0	372924.0	2862.0	-5705534.0
16	14	52	4	189	143.0	350066.0	1469.0	-5705256.0
16	14	52	4	189	144.0	277769.0	1494.0	-5704454.0
16	14	52	4	189	145.0	167288.0	1619.0	-5704494.0
16	14	52	4	190	146.0	71329.0	1196.0	-5705536.0
16	14	52	4	190	147.0	11943.0	774.0	-5705080.0
16	14	52	4	190	148.0	-1066.0	64.0	-5704236.0
16	14	52	4	191	149.0	18375.0	-717.0	-5703811.0
16	14	52	4	191	150.0	58684.0	-2824.0	-5704962.0
16	14	52	4	191	151.0	114872.0	-3509.0	-5705189.0
16	14	52	4	191	152.0	182867.0	-3402.0	-5704359.0
16	14	52	4	192	153.0	255031.0	-3293.0	-5704006.0
16	14	52	4	192	154.0	332179.0	-4120.0	-5705306.0
16	14	52	4	192	155.0	407647.0	-4492.0	-5705439.0
16	14	52	4	193	156.0	477055.0	-4904.0	-5704651.0
16	14	52	4	193	157.0	543781.0	-6214.0	-5704219.0
16	14	52	4	282	158.0	607128.0	-7540.0	-5705334.0
16	14	52	4	282	159.0	649038.0	-7597.0	-5705499.0
16	14	52	4	282	160.0	667296.0	-7434.0	-5704665.0
16	14	52	4	283	161.0	666342.0	-7768.0	-5704154.0
16	14	52	4	283	162.0	652161.0	-8256.0	-5705154.0
16	14	52	4	283	163.0	634768.0	-9006.0	-5705231.0
16	14	52	4	283	164.0	602372.0	-9304.0	-5704420.0
16	14	52	4	284	165.0	549196.0	-10916.0	-5703823.0
16	14	52	4	284	166.0	465524.0	-11589.0	-5704929.0
16	14	52	4	284	167.0	375416.0	-11361.0	-5705376.0
16	14	52	4	284	168.0	304281.0	-10837.0	-5704601.0
16	14	52	4	284	169.0	251987.0	-11288.0	-5703910.0
16	14	52	4	285	170.0	214630.0	-11712.0	-5704724.0
16	14	52	4	285	171.0	185848.0	-12041.0	-5705422.0
16	14	52	4	285	172.0	172353.0	-12709.0	-5704725.0
16	14	52	4	285	173.0	170473.0	-13716.0	-5704161.0
16	14	52	4	285	174.0	167309.0	-13651.0	-5705393.0
16	14	52	4	286	175.0	163536.0	-13793.0	-5705696.0
16	14	52	4	286	176.0	157287.0	-14059.0	-5704949.0
16	14	52	4	286	177.0	146347.0	-14440.0	-5704240.0
16	14	52	4	286	178.0	128563.0	-14437.0	-5705118.0
16	14	52	4	286	179.0	110428.0	-14495.0	-5705559.0
16	14	52	4	287	180.0	84872.0	-14924.0	-5704871.0
16	14	52	4	287	181.0	54494.0	-14842.0	-5704079.0
16	14	52	4	287	182.0	13099.0	-14946.0	-5704657.0
16	14	52	4	287	183.0	-30556.0	-15336.0	-5705472.0
16	14	52	4	287	184.0	-77567.0	-15748.0	-5704858.0
16	14	52	4	288	185.0	-120319.0	-15613.0	-5704059.0
16	14	52	4	288	186.0	-157822.0	-15250.0	-5704420.0
16	14	52	4	288	187.0	-188191.0	-15317.0	-5705538.0
16	14	52	4	288	188.0	-210474.0	-16088.0	-5705032.0
16	14	52	4	288	189.0	-219914.0	-16246.0	-5704242.0
16	14	52	4	289	190.0	-217852.0	-15954.0	-5704717.0
16	14	52	4	289	191.0	-201923.0	-15592.0	-5705393.0
16	14	52	4	289	192.0	-165501.0	-15073.0	-5704791.0
16	14	52	4	290	193.0	-125102.0	-14559.0	-5703993.0
16	14	52	4	290	194.0	-75595.0	-14537.0	-5704459.0
16	14	52	4	290	195.0	-31724.0	-14723.0	-5705337.0
16	14	52	4	290	196.0	8144.0	-13876.0	-5704749.0
16	14	52	4	291	197.0	37561.0	-13146.0	-5703931.0
16	14	52	4	291	198.0	48584.0	-13021.0	-5703776.0
16	14	52	4	291	199.0	44787.0	-13654.0	-5704972.0
16	14	52	4	291	200.0	31922.0	-13566.0	-5704662.0
16	14	52	4	291	201.0	15063.0	-13615.0	-5703847.0
16	14	52	4	292	202.0	-1364.0	-14206.0	-5703679.0
16	14	52	4	292	203.0	-22846.0	-14242.0	-5705045.0
16	14	52	4	292	204.0	-49093.0	-13731.0	-5704806.0
16	14	52	4	292	205.0	-87727.0	-13158.0	-5704041.0
16	14	52	4	293	206.0	-121915.0	-11881.0	-5704070.0
16	14	52	4	293	207.0	-144684.0	-11312.0	-5705233.0
16	14	52	4	293	208.0	-164661.0	-11557.0	-5704782.0
16	14	52	4	293	209.0	-179365.0	-10983.0	-5703974.0
16	14	52	4	392	210.0	-188852.0	-11572.0	-5703759.0
16	14	52	4	392	211.0	-186822.0	-11782.0	-5705109.0
16	14	52	4	392	212.0	-172000.0	-10554.0	-5704809.0
16	14	52	4	393	213.0	-137703.0	-9993.0	-5704071.0
16	14	52	4	393	214.0	-104786.0	-9847.0	-5703550.0
16	14	52	4	393	215.0	-79334.0	-9439.0	-5704923.0
16	14	52	4	393	216.0	-60186.0	-9245.0	-5705088.0
16	14	52	4	394	217.0	-47312.0	-9135.0	-5704382.0
16	14	52	4	394	218.0	-43732.0	-9041.0	-5703952.0
16	14	52	4	394	219.0	-57484.0	-8572.0	-5705304.0
16	14	52	4	394	220.0	-79532.0	-7692.0	-5705186.0
16	14	52	4	395	221.0	-103814.0	-7119.0	-5704486.0
16	14	52	4	395	222.0	-125999.0	-6845.0	-5703899.0
16	14	52	4	395	223.0	-149733.0	-6671.0	-5705177.0
16	14	52	4	395	224.0	-174663.0	-6487.0	-5705294.0
16	14	52	4	396	225.0	-191962.0	-7024.0	-5704554.0
16	14	52	4	396	226.0	-201163.0	-6759.0	-5703772.0
16	14	52	4	396	227.0	-200676.0	-5870.0	-5704665.0
16	14	52	4	396	228.0	-190591.0	-4951.0	-5705331.0
16	14	52	4	397	229.0	-169751.0	-4355.0	-5704666.0
16	14	52	4	397	230.0	-149531.0	-4733.0	-5703912.0
16	14	52	4	397	231.0	-131918.0	-5132.0	-5704716.0
16	14	52	4	397	232.0	-121401.0	-5176.0	-5705529.0
16	14	52	4	398	233.0	-99712.0	-5745.0	-5704891.0
16	14	52	4	398	234.0	-64283.0	-5446.0	-5704141.0
16	14	52	4	398	235.0	-28619.0	-5230.0	-5704806.0
16	14	52	4	398	236.0	-359.0	-5115.0	-5705482.0
16	14	52	4	399	237.0	23381.0	-4477.0	-5704851.0
16	14	52	4	399	238.0	50665.0	-4548.0	-5704050.0
16	14	52	4	399	239.0	75508.0	-4226.0	-5704389.0
16	14	52	4	399	240.0	96776.0	-4839.0	-5705486.0
16	14	52	4	400	241.0	111558.0	-4992.0	-5704952.0
16	14	52	4	400	242.0	119911.0	-5016.0	-5704150.0
16	14	52	4	400	243.0	115662.0	-4739.0	-5704259.0
16	14	52	4	400	244.0	111830.0	-4460.0	-5705336.0
16	14	52	4	401	245.0	113137.0	-4033.0	-5704804.0
16	14	52	4	401	246.0	115923.0	-3031.0	-5704041.0
16	14	52	4	401	247.0	116286.0	-3128.0	-5704018.0
16	14	52	4	401	248.0	120771.0	-3005.0	-5705174.0
16	14	52	4	402	249.0	134649.0	-2396.0	-5704688.0
16	14	52	4	402	250.0	154875.0	-2806.0	-5703977.0
16	14	52	4	402	251.0	169886.0	-2787.0	-5704069.0
16	14	52	4	402	252.0	173481.0	-2832.0	-5704612.0
16	14	52	4	403	253.0	176994.0	-2860.0	-5703993.0
16	14	52	4	403	254.0	180734.0	-3257.0	-5703794.0
16	14	52	4	403	255.0	181401.0	-3917.0	-5705112.0
16	14	52	4	403	0.0	177905.0	-3954.0	-5704791.0
16	14	52	4	404	1.0	173108.0	-3699.0	-5704053.0
16	14	52	4	404	2.0	171906.0	-3010.0	-5703526.0
16	14	52	4	404	3.0	172659.0	-2464.0	-5704611.0
16	14	52	4	502	4.0	170321.0	-2406.0	-5704752.0
16	14	52	4	502	5.0	172932.0	-2028.0	-5703961.0
16	14	52	4	502	6.0	180070.0	-2281.0	-5703409.0
16	14	52	4	503	7.0	190006.0	-2996.0	-5704417.0
16	14	52	4	503	8.0	197568.0	-2693.0	-5704684.0
16	14	52	4	503	9.0	201476.0	-2191.0	-5703869.0
16	14	52	4	503	10.0	203448.0	-2296.0	-5703413.0
16	14	52	4	504	11.0	193849.0	-2406.0	-5704777.0
16	14	52	4	504	12.0	170272.0	-2676.0	-5705052.0
16	14	52	4	504	13.0	141581.0	-3266.0	-5704246.0
16	14	52	4	504	14.0	107004.0	-4498.0	-5703630.0
16	14	52	4	505	15.0	69928.0	-3977.0	-5704401.0
16	14	52	4	505	16.0	29910.0	-3464.0	-5704935.0
16	14	52	4	505	17.0	-4387.0	-3389.0	-5704151.0
16	14	52	4	505	18.0	-41922.0	-2969.0	-5703491.0
16	14	52	4	506	19.0	-80664.0	-3161.0	-5704129.0
16	14	52	4	506	20.0	-115227.0	-3587.0	-5705049.0
16	14	52	4	506	21.0	-140886.0	-4131.0	-5704296.0
16	14	52	4	506	22.0	-152239.0	-4375.0	-5703616.0
16	14	52	4	507	23.0	-147742.0	-3921.0	-5704014.0
16	14	52	4	507	24.0	-133117.0	-2874.0	-5704858.0
16	14	52	4	507	25.0	-108306.0	-2212.0	-5704150.0
16	14	52	4	507	26.0	-86258.0	-2366.0	-5703561.0
16	14	52	4	507	27.0	-70566.0	-2294.0	-5704381.0
16	14	52	4	508	28.0	-64861.0	-2776.0	-5704911.0
16	14	52	4	508	29.0	-52826.0	-3830.0	-5704122.0
16	14	52	4	508	30.0	-28475.0	-3670.0	-5703542.0
16	14	52	4	508	31.0	5539.0	-2118.0	-5704666.0
16	14	52	4	509	32.0	34869.0	-2096.0	-5705494.0
16	14	52	4	509	33.0	47268.0	-2888.0	-5704730.0
16	14	52	4	509	34.0	46885.0	-3199.0	-5703994.0
16	14	52	4	509	35.0	25055.0	-2648.0	-5704106.0
16	14	52	4	510	36.0	-14662.0	-2724.0	-5705326.0
16	14	52	4	510	37.0	-51374.0	-3107.0	-5704787.0
16	14	52	4	510	38.0	-66191.0	-2898.0	-5704019.0
16	14	52	4	510	39.0	-53867.0	-1447.0	-5704111.0
16	14	52	4	511	40.0	-29819.0	-1437.0	-5705454.0
16	14	52	4	511	41.0	-9536.0	-1739.0	-5704998.0
16	14	52	4	511	42.0	3874.0	-1445.0	-5704219.0
16	14	52	4	512	43.0	7624.0	-1110.0	-5704131.0
16	14	52	4	512	44.0	2683.0	-1700.0	-5705401.0
16	14	52	4	512	45.0	328.0	-1994.0	-5705029.0
16	14	52	4	512	46.0	11933.0	-1364.0	-5704245.0
16	14	52	4	513	47.0	57465.0	-1201.0	-5704414.0
16	14	52	4	513	48.0	141632.0	-1314.0	-5705539.0
16	14	52	4	513	49.0	275728.0	-765.0	-5705029.0
16	14	52	4	513	50.0	471968.0	-514.0	-5704245.0
16	14	52	4	513	51.0	727543.0	-600.0	-5703948.0
16	14	52	4	514	52.0	1029591.0	-1286.0	-5705325.0
16	14	52	4	514	53.0	1363783.0	-345.0	-5705342.0
16	14	52	4	514	54.0	1698113.0	721.0	-5704564.0
16	14	52	4	514	55.0	2041598.0	1164.0	-5704019.0
16	14	52	4	515	56.0	2410106.0	1494.0	-5704992.0
16	14	52	4	515	57.0	2313097.0	1828.0	-5705458.0
16	14	52	4	515	58.0	1537601.0	1291.0	-5704574.0
16	14	52	4	606	59.0	387156.0	599.0	-5704069.0
16	14	52	4	606	60.0	-912331.0	609.0	-5705143.0
16	14	52	4	607	61.0	-2031987.0	1163.0	-5705108.0
16	14	52	4	607	62.0	-2809914.0	1285.0	-5704201.0
16	14	52	4	607	63.0	-2999494.0	1321.0	-5703690.0
16	14	52	4	608	64.0	-2405059.0	1003.0	-5704756.0
16	14	52	4	608	65.0	-1298009.0	461.0	-5705205.0
16	14	52	4	608	66.0	-256226.0	-414.0	-5704510.0
16	14	52	4	608	67.0	443282.0	-1279.0	-5704042.0
16	14	52	4	609	68.0	1014121.0	-776.0	-5705089.0
16	14	52	4	609	69.0	1686454.0	841.0	-5705646.0
16	14	52	4	609	70.0	2286796.0	1973.0	-5704926.0
16	14	52	4	609	71.0	2471674.0	2896.0	-5704257.0
16	14	52	4	610	72.0	2070948.0	3179.0	-5704478.0
16	14	52	4	610	73.0	1159095.0	2714.0	-5705456.0
16	14	52	4	610	74.0	-6976.0	1597.0	-5704744.0
16	14	52	4	610	75.0	-1234780.0	1484.0	-5704049.0
16	14	52	4	611	76.0	-2317267.0	2429.0	-5704754.0
16	14	52	4	611	77.0	-3003992.0	2171.0	-5705011.0
16	14	52	4	611	78.0	-3319219.0	2211.0	-5704209.0
16	14	52	4	611	79.0	-3151906.0	2281.0	-5703603.0
16	14	52	4	612	80.0	-2659434.0	2716.0	-5704484.0
16	14	52	4	612	81.0	-2197898.0	2159.0	-5705035.0
16	14	52	4	612	82.0	-1724381.0	1716.0	-5704316.0
16	14	52	4	612	83.0	-1152822.0	2166.0	-5703607.0
16	14	52	4	613	84.0	-502427.0	2871.0	-5704026.0
16	14	52	4	613	85.0	153414.0	2785.0	-5704682.0
16	14	52	4	613	86.0	648548.0	2710.0	-5704089.0
16	14	52	4	613	87.0	968265.0	2911.0	-5703394.0
16	14	52	4	614	88.0	966338.0	2874.0	-5704257.0
16	14	52	4	614	89.0	666714.0	2182.0	-5704675.0
16	14	52	4	614	90.0	291791.0	2319.0	-5703947.0
16	14	52	4	614	91.0	-3524.0	3398.0	-5703236.0
16	14	52	4	615	92.0	-170551.0	4605.0	-5704125.0
16	14	52	4	615	93.0	-239912.0	4664.0	-5704557.0
16	14	52	4	615	94.0	-236654.0	4279.0	-5703854.0
16	14	52	4	615	95.0	-181037.0	3773.0	-5703182.0
16	14	52	4	616	96.0	-124054.0	3455.0	-5704202.0
16	14	52	4	616	97.0	-86726.0	3185.0	-5704525.0
16	14	52	4	616	98.0	-47885.0	2713.0	-5703832.0
16	14	52	4	617	99.0	4111.0	3678.0	-5703019.0
16	14	52	4	617	100.0	71224.0	4528.0	-5703765.0
16	14	52	4	617	101.0	147912.0	4978.0	-5704514.0
16	14	52	4	617	102.0	222419.0	4669.0	-5703897.0
16	14	52	4	618	103.0	295651.0	4867.0	-5703147.0
16	14	52	4	618	104.0	364161.0	3824.0	-5703762.0
16	14	52	4	618	105.0	406030.0	3631.0	-5704635.0
16	14	52	4	619	106.0	387761.0	4936.0	-5704041.0
16	14	52	4	619	107.0	342084.0	4986.0	-5703307.0
16	14	52	4	619	108.0	280001.0	4501.0	-5704198.0
16	14	52	4	619	109.0	214848.0	4675.0	-5704866.0
16	14	52	4	619	110.0	148714.0	4781.0	-5704211.0
16	14	52	4	620	111.0	86301.0	4599.0	-5703416.0
16	14	52	4	718	112.0	27761.0	4399.0	-5703729.0
16	14	52	4	718	113.0	-10097.0	5046.0	-5704796.0
16	14	52	4	719	114.0	-43022.0	6218.0	-5704246.0
16	14	52	4	719	115.0	-75897.0	5739.0	-5703402.0
16	14	52	4	719	116.0	-107705.0	5018.0	-5703656.0
16	14	52	4	720	117.0	-141289.0	5098.0	-5704970.0
16	14	52	4	720	118.0	-171050.0	4832.0	-5704483.0
16	14	52	4	720	119.0	-170258.0	4096.0	-5703677.0
16	14	52	4	720	120.0	-135631.0	4135.0	-5703197.0
16	14	52	4	721	121.0	-72149.0	5459.0	-5704494.0
16	14	52	4	721	122.0	11776.0	5901.0	-5704724.0
16	14	52	4	721	123.0	108708.0	6411.0	-5703992.0
16	14	52	4	721	124.0	200908.0	6381.0	-5703561.0
16	14	52	4	722	125.0	278442.0	6550.0	-5704850.0
16	14	52	4	722	126.0	330136.0	5880.0	-5704900.0
16	14	52	4	722	127.0	361501.0	5449.0	-5704164.0
16	14	52	4	723	128.0	369659.0	5725.0	-5703640.0
16	14	52	4	723	129.0	348842.0	6454.0	-5704858.0
16	14	52	4	723	130.0	302019.0	6590.0	-5704984.0
16	14	52	4	723	131.0	242019.0	6379.0	-5704244.0
16	14	52	4	724	132.0	173904.0	6381.0	-5703466.0
16	14	52	4	724	133.0	115768.0	6423.0	-5704029.0
16	14	52	4	724	134.0	76659.0	5856.0	-5704824.0
16	14	52	4	724	135.0	50839.0	6298.0	-5704196.0
16	14	52	4	725	136.0	40834.0	7241.0	-5703419.0
16	14	52	4	725	137.0	32271.0	7339.0	-5704230.0
16	14	52	4	725	138.0	21453.0	7353.0	-5705017.0
16	14	52	4	726	139.0	13386.0	7289.0	-5704392.0
16	14	52	4	726	140.0	196.0	7819.0	-5703581.0
16	14	52	4	726	141.0	-20418.0	7416.0	-5704051.0
16	14	52	4	726	142.0	-41313.0	6951.0	-5704999.0
16	14	52	4	727	143.0	-58022.0	7335.0	-5704455.0
16	14	52	4	727	144.0	-74106.0	8074.0	-5703659.0
16	14	52	4	727	145.0	-73880.0	8603.0	-5704311.0
16	14	52	4	727	146.0	-59095.0	8744.0	-5705231.0
16	14	52	4	728	147.0	-18104.0	8613.0	-5704614.0
16	14	52	4	728	148.0	34685.0	8878.0	-5703816.0
16	14	52	4	728	149.0	104353.0	8496.0	-5703877.0
16	14	52	4	729	150.0	145122.0	9644.0	-5705036.0
16	14	52	4	729	151.0	125693.0	10974.0	-5704605.0
16	14	52	4	729	152.0	85942.0	11929.0	-5703814.0
16	14	52	4	729	153.0	34986.0	12997.0	-5703727.0
16	14	52	4	730	154.0	-25564.0	13624.0	-5704994.0
16	14	52	4	730	155.0	-94548.0	14258.0	-5704641.0
16	14	52	4	730	156.0	-159403.0	14834.0	-5703867.0
16	14	52	4	730	157.0	-221406.0	15414.0	-5704423.0
16	14	52	4	731	158.0	-278537.0	16658.0	-5705373.0
16	14	52	4	731	159.0	-319303.0	18111.0	-5704698.0
16	14	52	4	731	160.0	-343169.0	18889.0	-5703944.0
16	14	52	4	731	161.0	-331246.0	19853.0	-5703855.0
16	14	52	4	732	162.0	-341053.0	20426.0	-5705184.0
16	14	52	4	732	163.0	-362614.0	20914.0	-5704754.0
16	14	52	4	732	164.0	-381217.0	21266.0	-5704035.0
16	14	52	4	733	165.0	-402094.0	22163.0	-5703597.0
16	14	52	4	733	166.0	-417201.0	23840.0	-5704939.0
16	14	52	4	733	167.0	-417056.0	24405.0	-5704794.0
16	14	52	4	733	168.0	-393322.0	25196.0	-5704078.0
16	14	52	4	734	169.0	-361160.0	26281.0	-5703438.0
16	14	52	4	734	170.0	-326174.0	27934.0	-5704664.0
16	14	52	4	734	171.0	-309781.0	27971.0	-5704957.0
16	14	52	4	829	172.0	-304674.0	29001.0	-5704287.0
16	14	52	4	829	173.0	-300815.0	30007.0	-5703687.0
16	14	52	4	830	174.0	-291269.0	31258.0	-5704840.0
16	14	52	4	830	175.0	-274057.0	31849.0	-5704889.0
16	14	52	4	830	176.0	-253320.0	32056.0	-5704192.0
16	14	52	4	831	177.0	-220825.0	32271.0	-5703721.0
16	14	52	4	831	178.0	-175817.0	32733.0	-5704893.0
16	14	52	4	831	179.0	-122188.0	32341.0	-5704664.0
16	14	52	4	831	180.0	-65676.0	33238.0	-5703965.0
16	14	52	4	832	181.0	-17502.0	33974.0	-5703274.0
16	14	52	4	832	182.0	33732.0	34381.0	-5703936.0
16	14	52	4	832	183.0	85399.0	34314.0	-5704095.0
16	14	52	4	832	184.0	143643.0	34441.0	-5703444.0
16	14	52	4	833	185.0	189539.0	34339.0	-5703891.0
16	14	52	4	833	186.0	232664.0	33285.0	-5704828.0
16	14	52	4	833	187.0	255334.0	32302.0	-5704139.0
16	14	52	4	833	188.0	252164.0	32439.0	-5703562.0
16	14	52	4	834	189.0	217398.0	32305.0	-5704387.0
16	14	52	4	834	190.0	142931.0	32814.0	-5704966.0
16	14	52	4	834	191.0	44164.0	32566.0	-5704175.0
16	14	52	4	834	192.0	-83630.0	31723.0	-5703497.0
16	14	52	4	835	193.0	-249560.0	31118.0	-5703891.0
16	14	52	4	835	194.0	-527258.0	30006.0	-5704682.0
16	14	52	4	835	195.0	-983137.0	30054.0	-5703925.0
16	14	52	4	835	196.0	-1537220.0	30156.0	-5703141.0
16	14	52	4	836	197.0	-2041752.0	28609.0	-5703540.0
16	14	52	4	836	198.0	-2241927.0	27265.0	-5704609.0
16	14	52	4	836	199.0	-1650496.0	26481.0	-5704047.0
16	14	52	4	837	200.0	-312373.0	25994.0	-5703420.0
16	14	52	4	837	201.0	1129522.0	24724.0	-5703432.0
16	14	52	4	837	202.0	2132943.0	23758.0	-5704721.0
16	14	52	4	837	203.0	2426613.0	23583.0	-5704376.0
16	14	52	4	838	204.0	2145571.0	23992.0	-5703625.0
16	14	52	4	838	205.0	1541494.0	23681.0	-5704039.0
16	14	52	4	838	206.0	816293.0	22410.0	-5705012.0
16	14	52	4	838	207.0	148435.0	21271.0	-5704336.0
16	14	52	4	839	208.0	-343595.0	19509.0	-5703567.0
16	14	52	4	839	209.0	-617887.0	17868.0	-5704195.0
16	14	52	4	839	210.0	-705442.0	17401.0	-5705147.0
16	14	52	4	840	211.0	-666801.0	17168.0	-5704502.0
16	14	52	4	840	212.0	-564446.0	16618.0	-5703682.0
16	14	52	4	840	213.0	-439758.0	15724.0	-5703574.0
16	14	52	4	840	214.0	-320496.0	14784.0	-5704942.0
16	14	52	4	841	215.0	-231348.0	13301.0	-5704760.0
16	14	52	4	841	216.0	-159824.0	11189.0	-5703953.0
16	14	52	4	841	217.0	-105579.0	10228.0	-5704002.0
16	14	52	4	842	218.0	-75948.0	9941.0	-5705071.0
16	14	52	4	842	219.0	-66217.0	9827.0	-5704677.0
16	14	52	4	842	220.0	-11567.0	9066.0	-5703876.0
16	14	52	4	842	221.0	72765.0	8448.0	-5703860.0
16	14	52	4	843	222.0	142046.0	7760.0	-5705046.0
16	14	52	4	843	223.0	200046.0	6591.0	-5704718.0
16	14	52	4	935	224.0	272441.0	4864.0	-5703911.0
16	14	52	4	936	225.0	343170.0	4153.0	-5703837.0
16	14	52	4	936	226.0	385083.0	3987.0	-5704992.0
16	14	52	4	936	227.0	393398.0	3284.0	-5704624.0
16	14	52	4	937	228.0	380807.0	2321.0	-5703857.0
16	14	52	4	937	229.0	360711.0	1319.0	-5703410.0
16	14	52	4	937	230.0	351082.0	937.0	-5704523.0
16	14	52	4	937	231.0	359542.0	140.0	-5704527.0
16	14	52	4	938	232.0	380014.0	-380.0	-5703752.0
16	14	52	4	938	233.0	432895.0	-1352.0	-5703131.0
16	14	52	4	938	234.0	508144.0	-2171.0	-5704181.0
16	14	52	4	939	235.0	573279.0	-3218.0	-5704608.0
16	14	52	4	939	236.0	609613.0	-3702.0	-5703879.0
16	14	52	4	939	237.0	620325.0	-4045.0	-5703381.0
16	14	52	4	939	238.0	596518.0	-5509.0	-5704474.0
16	14	52	4	940	239.0	547929.0	-6784.0	-5704419.0
16	14	52	4	940	240.0	485480.0	-7222.0	-5703657.0
16	14	52	4	940	241.0	422927.0	-7690.0	-5703039.0
16	14	52	4	940	242.0	381839.0	-8194.0	-5704171.0
16	14	52	4	941	243.0	360461.0	-8556.0	-5704611.0
16	14	52	4	941	244.0	282621.0	-7881.0	-5703886.0
16	14	52	4	941	245.0	195039.0	-8333.0	-5703148.0
16	14	52	4	941	246.0	97955.0	-10032.0	-5704076.0
16	14	52	4	942	247.0	-12606.0	-9629.0	-5704553.0
16	14	52	4	942	248.0	-133522.0	-9614.0	-5703864.0
16	14	52	4	942	249.0	-241859.0	-10409.0	-5703081.0
16	14	52	4	943	250.0	-316064.0	-10615.0	-5703899.0
16	14	52	4	943	251.0	-367533.0	-11328.0	-5704759.0
16	14	52	4	943	252.0	-429460.0	-11517.0	-5704109.0
16	14	52	4	943	253.0	-551539.0	-12495.0	-5703364.0
16	14	52	4	944	254.0	-663372.0	-13339.0	-5704338.0
16	14	52	4	944	255.0	-692710.0	-13675.0	-5704859.0
