16	16	14	42	611	110.0	1034640.0	1949.0	-722493.0
16	16	14	42	631	111.0	1435913.0	2341.0	-722313.0
16	16	14	42	632	112.0	1820896.0	2963.0	-722588.0
16	16	14	42  633	113.0   2205289.0	3774.0	-722501.0
16	16	14	42	633	114.0	2576897.0	4401.0	-722772.0
16	16	14	42	634	115.0	2897816.0	2890.0	-722741.0
16	16	14	42	635	116.0	3128190.0	-38.0	-722847.0
16	16	14	42	636	117.0	3221021.0	934.0	-722810.0
16	16	14	42	636	118.0	3158942.0	2350.0	-722860.0
16	16	14	42	637	119.0	2940812.0	583.0	-722884.0
16	16	14	42	638	120.0	2587065.0	1594.0	-722776.0
16	16	14	42	638	121.0	2150643.0	3316.0	-722802.0
16	16	14	42	639	122.0	1679080.0	3779.0	-722579.0
16	16	14	42	639	123.0	1213068.0	1467.0	-722534.0
16	16	14	42	660	124.0	784858.0	2322.0	-722387.0
16	16	14	42	661	125.0	432889.0	4310.0	-722536.0
16	16	14	42	661	126.0	181167.0	4251.0	-722330.0
16	16	14	42	661	127.0	29642.0	2292.0	-722586.0
16	16	14	42	662	128.0	-55854.0	3325.0	-722327.0
16	16	14	42	662	129.0	-98617.0	4536.0	-722391.0
16	16	14	42	697	130.0	-110754.0	2881.0	-722044.0
16	16	14	42	698	131.0	-88667.0	1951.0	-722254.0
16	16	14	42	712	132.0	-20261.0	3818.0	-722042.0
16	16	14	42	712	133.0	91445.0	4533.0	-722211.0
16	16	14	42	713	134.0	230738.0	5179.0	-721948.0
16	16	14	42	713	135.0	395591.0	6296.0	-722255.0
16	16	14	42	713	136.0	569575.0	7155.0	-722170.0
16	16	14	42	714	137.0	751446.0	7212.0	-722240.0
16	16	14	42	714	138.0	922386.0	6764.0	-722217.0
16	16	14	42	714	139.0	1047249.0	7689.0	-722346.0
16	16	14	42	715	140.0	1134599.0	8089.0	-722367.0
16	16	14	42	715	141.0	1202262.0	8408.0	-722168.0
16	16	14	42	716	142.0	1263883.0	9146.0	-722147.0
16	16	14	42	716	143.0	1316309.0	9613.0	-722177.0
16	16	14	42	716	144.0	1353103.0	9820.0	-722070.0
16	16	14	42	717	159.0	1949467.0	14909.0	-722114.0
16	16	14	42	717	160.0	1800124.0	13009.0	-722084.0
16	16	14	42	717	161.0	1594370.0	9894.0	-721835.0
16	16	14	42	718	162.0	1363364.0	8521.0	-722016.0
16	16	14	42	718	163.0	1103034.0	8203.0	-721664.0
16	16	14	42	718	164.0	818769.0	7829.0	-721812.0
16	16	14	42	742	165.0	516183.0	8308.0	-721639.0
16	16	14	42	761	166.0	207750.0	9419.0	-721644.0
16	16	14	42	762	167.0	-79977.0	13698.0	-721373.0
16	16	14	42	762	168.0	-333797.0	18416.0	-721375.0
16	16	14	42	762	169.0	-551621.0	21983.0	-721157.0
16	16	14	42	763	170.0	-738686.0	24996.0	-721160.0
16	16	14	42	763	171.0	-892999.0	28349.0	-721121.0
16	16	14	42	763	172.0	-1010111.0	31918.0	-721276.0
16	16	14	42	763	173.0	-1090487.0	34998.0	-721299.0
16	16	14	42	764	174.0	-1110592.0	37523.0	-721210.0
16	16	14	42	764	175.0	-1068770.0	40156.0	-721299.0
16	16	14	42	764	176.0	-975612.0	42823.0	-721215.0
16	16	14	42	764	177.0	-835483.0	46101.0	-721386.0
16	16	14	42	765	178.0	-663654.0	48969.0	-721240.0
16	16	14	42	765	179.0	-478731.0	51732.0	-721532.0
16	16	14	42	765	181.0	-146504.0	57101.0	-721550.0
16	16	14	42	766	182.0	1086.0	58543.0	-721288.0
16	16	14	42	766	183.0	138126.0	57811.0	-721499.0
16	16	14	42	766	184.0	266518.0	57809.0	-721247.0
16	16	14	42	767	185.0	379644.0	58387.0	-721481.0
16	16	14	42	767	186.0	487158.0	59228.0	-721262.0
16	16	14	42	767	187.0	579069.0	60170.0	-721431.0
16	16	14	42	835	188.0	648690.0	61365.0	-721195.0
16	16	14	42	835	189.0	707467.0	63547.0	-721328.0
16	16	14	42	836	190.0	762086.0	67614.0	-721110.0
16	16	14	42	848	191.0	815390.0	71485.0	-721187.0
16	16	14	42	849	192.0	862333.0	74733.0	-721113.0
16	16	14	42	850	193.0	901634.0	76970.0	-721108.0
16	16	14	42	850	194.0	933526.0	79185.0	-721034.0
16	16	14	42	851	195.0	957323.0	80676.0	-721035.0
16	16	14	42	851	196.0	985983.0	81671.0	-720971.0
16	16	14	42	851	197.0	1014854.0	82871.0	-721375.0
16	16	14	42	852	198.0	1042075.0	83368.0	-721214.0
16	16	14	42	852	199.0	1065508.0	83621.0	-721427.0
16	16	14	42	853	200.0	1094724.0	84354.0	-721288.0
16	16	14	42	853	201.0	1154971.0	84666.0	-721556.0
16	16	14	42	854	202.0	1243046.0	83663.0	-721546.0
16	16	14	42	877	226.0	733199.0	33512.0	-721521.0
16	16	14	42	878	227.0	867347.0	28926.0	-721596.0
16	16	14	42	878	228.0	857462.0	22934.0	-721494.0
16	16	14	42	879	229.0	753696.0	17813.0	-721872.0
16	16	14	42	879	230.0	583137.0	13546.0	-721657.0
16	16	14	42	879	231.0	355177.0	9391.0	-721899.0
16	16	14	42	880	232.0	153431.0	6367.0	-721647.0
16	16	14	42	880	233.0	6370.0	3513.0	-722054.0
16	16	14	42	900	234.0	-85907.0	1524.0	-721704.0
16	16	14	42	901	235.0	-134878.0	1997.0	-721902.0
16	16	14	42	901	236.0	-164593.0	2061.0	-721819.0
16	16	14	42	924	237.0	-196177.0	999.0	-722086.0
16	16	14	42	925	238.0	-264329.0	-5.0	-721778.0
16	16	14	42	926	239.0	-407119.0	-1217.0	-721994.0
16	16	14	42	927	240.0	-612147.0	-2200.0	-721632.0
16	16	14	42	928	241.0	-797937.0	-3865.0	-721785.0
16	16	14	42	929	242.0	-923269.0	-5442.0	-721408.0
16	16	14	42	930	243.0	-1014121.0	-6744.0	-721570.0
16	16	14	42	931	244.0	-1017457.0	-7597.0	-721281.0
16	16	14	42	932	245.0	-888362.0	-9584.0	-721600.0
16	16	14	42	933	246.0	-656058.0	-10879.0	-721379.0
16	16	14	42	934	247.0	-356611.0	-11549.0	-721476.0
16	16	14	42	935	249.0	345156.0	-13618.0	-721645.0
16	16	14	42	936	250.0	693026.0	-17862.0	-721727.0
16	16	14	42	936	251.0	1001408.0	-20886.0	-721770.0
16	16	14	42	937	252.0	1257835.0	-20679.0	-721674.0
16	16	14	42	938	15.0	1038964.0	-32892.0	-722198.0
16	16	14	42	938	16.0	1010212.0	-34589.0	-722151.0
16	16	14	42	939	17.0	979029.0	-38090.0	-722206.0
16	16	14	42	940	18.0	939338.0	-40919.0	-722081.0
16	16	14	42	940	19.0	885933.0	-43094.0	-722256.0
16	16	14	42	941	20.0	815821.0	-44736.0	-722024.0
16	16	14	42	942	21.0	732856.0	-45936.0	-722403.0
16	16	14	42	970	22.0	642662.0	-46756.0	-722117.0
16	16	14	42	972	23.0	555252.0	-46358.0	-722424.0
16	16	14	42	974	24.0	467352.0	-43074.0	-722343.0
16	16	14	42	976	25.0	380591.0	-40582.0	-722532.0
16	16	14	42	978	26.0	295381.0	-38467.0	-722264.0
16	16	14	42	980	27.0	224889.0	-36704.0	-722549.0
16	16	14	42	982	28.0	161278.0	-35376.0	-722343.0
16	16	14	42	983	29.0	104585.0	-33708.0	-722581.0
16	16	14	42	985	30.0	65275.0	-32141.0	-722347.0
16	16	14	42	986	31.0	31884.0	-31459.0	-722654.0
16	16	14	42	988	32.0	23130.0	-30384.0	-722297.0
16	16	14	42	989	33.0	45163.0	-29342.0	-722535.0
16	16	14	42	990	34.0	84148.0	-28557.0	-722272.0
16	16	14	42	991	35.0	143297.0	-28417.0	-722473.0
16	16	14	42	993	36.0	216362.0	-27679.0	-722285.0
16	16	14	42	994	38.0	436701.0	-26208.0	-722372.0
16	16	14	42	995	39.0	601069.0	-28329.0	-722460.0
16	16	14	42	997	40.0	802371.0	-30736.0	-722450.0
16	16	14	42	998	41.0	1023170.0	-32351.0	-722573.0
16	16	14	42	999	42.0	1242411.0	-33361.0	-722717.0
16	16	14	43	0	43.0	1446393.0	-33744.0	-722689.0
16	16	14	43	12	44.0	1632014.0	-33692.0	-722773.0
16	16	14	43	14	45.0	1789626.0	-33011.0	-722736.0
16	16	14	43	15	46.0	1906033.0	-29213.0	-722899.0
16	16	14	43	16	47.0	1993256.0	-25816.0	-722743.0
16	16	14	43	17	48.0	2044916.0	-22844.0	-722941.0
16	16	14	43	18	49.0	2069008.0	-20226.0	-722721.0
16	16	14	43	19	50.0	2064377.0	-18712.0	-722976.0
16	16	14	43	20	51.0	2033126.0	-17118.0	-722731.0
16	16	14	43	21	52.0	1980815.0	-15614.0	-722965.0
16	16	14	43	22	53.0	1900753.0	-14538.0	-722791.0
16	16	14	43	23	54.0	1800354.0	-13548.0	-722964.0
16	16	14	43	24	55.0	1693764.0	-12267.0	-722771.0
16	16	14	43	25	56.0	1583781.0	-11576.0	-722963.0
16	16	14	43	26	57.0	1464717.0	-10972.0	-722778.0
16	16	14	43	26	58.0	1345859.0	-9664.0	-722873.0
16	16	14	43	27	60.0	1121713.0	-8413.0	-722845.0
16	16	14	43	27	61.0	1029703.0	-9594.0	-722748.0
16	16	14	43	27	62.0	959687.0	-12100.0	-722741.0
16	16	14	43	27	63.0	912309.0	-13963.0	-722646.0
16	16	14	43	28	64.0	895453.0	-15209.0	-722600.0
16	16	14	43	28	65.0	911342.0	-15675.0	-722509.0
16	16	14	43	28	66.0	946874.0	-16037.0	-722519.0
16	16	14	43	57	67.0	998526.0	-16260.0	-722671.0
16	16	14	43	58	68.0	1063885.0	-15741.0	-722471.0
16	16	14	43	80	69.0	1136973.0	-13074.0	-722811.0
16	16	14	43	81	70.0	1215294.0	-10854.0	-722872.0
16	16	14	43	81	71.0	1293881.0	-9138.0	-723042.0
16	16	14	43	82	72.0	1367313.0	-7888.0	-722869.0
16	16	14	43	82	73.0	1435435.0	-7426.0	-722953.0
16	16	14	43	83	74.0	1492132.0	-6104.0	-722762.0
16	16	14	43	83	75.0	1528734.0	-5606.0	-723076.0
16	16	14	43	83	76.0	1552432.0	-5356.0	-722909.0
16	16	14	43	84	77.0	1573906.0	-4749.0	-723087.0
16	16	14	43	84	78.0	1585569.0	-4583.0	-722830.0
16	16	14	43	85	79.0	1588319.0	-4284.0	-723056.0
16	16	14	43	85	80.0	1572548.0	-4682.0	-722736.0
16	16	14	43	86	81.0	1534213.0	-4652.0	-722990.0
16	16	14	43	86	83.0	1381169.0	-4654.0	-722994.0
16	16	14	43	87	84.0	1273744.0	-7925.0	-722777.0
16	16	14	43	87	85.0	1148843.0	-11185.0	-722964.0
16	16	14	43	88	86.0	1002315.0	-13001.0	-722763.0
16	16	14	43	89	87.0	838008.0	-14736.0	-722928.0
16	16	14	43	89	88.0	661284.0	-16093.0	-722850.0
16	16	14	43	112	89.0	485308.0	-16802.0	-722913.0
16	16	14	43	112	90.0	318601.0	-16988.0	-722902.0
16	16	14	43	113	91.0	157449.0	-14830.0	-723087.0
16	16	14	43	113	92.0	-5635.0	-12936.0	-723202.0
16	16	14	43	114	93.0	-173854.0	-10964.0	-723163.0
16	16	14	43	114	94.0	-338627.0	-9947.0	-723311.0
16	16	14	43	115	95.0	-480847.0	-9581.0	-723204.0
16	16	14	43	115	96.0	-601897.0	-8716.0	-723271.0
16	16	14	43	116	97.0	-724208.0	-9171.0	-723040.0
16	16	14	43	116	98.0	-852663.0	-9174.0	-723094.0
16	16	14	43	117	99.0	-992096.0	-9124.0	-722782.0
16	16	14	43	117	100.0	-1123894.0	-9419.0	-722851.0
16	16	14	43	118	101.0	-1247784.0	-9233.0	-722559.0
16	16	14	43	118	102.0	-1365164.0	-9331.0	-722591.0
16	16	14	43	118	103.0	-1472252.0	-9886.0	-722386.0
16	16	14	43	137	105.0	-1653467.0	-9309.0	-722562.0
16	16	14	43	137	106.0	-1719643.0	-11036.0	-722629.0
16	16	14	43	138	107.0	-1760344.0	-13989.0	-722407.0
16	16	14	43	138	108.0	-1782257.0	-16166.0	-722479.0
16	16	14	43	138	109.0	-1784667.0	-17739.0	-722332.0
16	16	14	43	139	110.0	-1753666.0	-19549.0	-722560.0
16	16	14	43	156	111.0	-1692122.0	-20491.0	-722557.0
16	16	14	43	156	112.0	-1596129.0	-20886.0	-722559.0
16	16	14	43	156	113.0	-1478286.0	-19358.0	-722576.0
16	16	14	43	157	114.0	-1343084.0	-17172.0	-722569.0
16	16	14	43	157	115.0	-1207603.0	-15821.0	-722592.0
16	16	14	43	157	116.0	-1066482.0	-14773.0	-722397.0
16	16	14	43	158	117.0	-917613.0	-14267.0	-722609.0
16	16	14	43	158	118.0	-767482.0	-13434.0	-722412.0
16	16	14	43	158	119.0	-609162.0	-12639.0	-722836.0
16	16	14	43	158	120.0	-459147.0	-12796.0	-722872.0
16	16	14	43	159	121.0	-318171.0	-12106.0	-723067.0
16	16	14	43	159	122.0	-194353.0	-11489.0	-723113.0
16	16	14	43	159	123.0	-104714.0	-11384.0	-723212.0
16	16	14	43	159	124.0	-50627.0	-11776.0	-723354.0
16	16	14	43	160	125.0	-32846.0	-11465.0	-723508.0
16	16	14	43	179	127.0	-103301.0	-11596.0	-723602.0
16	16	14	43	179	128.0	-176754.0	-11850.0	-723474.0
16	16	14	43	180	129.0	-263883.0	-14411.0	-723619.0
16	16	14	43	180	130.0	-360507.0	-17268.0	-723427.0
16	16	14	43	180	131.0	-481487.0	-19294.0	-723571.0
16	16	14	43	180	132.0	-608225.0	-20606.0	-723246.0
16	16	14	43	181	133.0	-727679.0	-21467.0	-723453.0
16	16	14	43	197	134.0	-840500.0	-21861.0	-723241.0
16	16	14	43	198	135.0	-963101.0	-21606.0	-723496.0
16	16	14	43	198	136.0	-1088905.0	-19133.0	-723294.0
16	16	14	43	199	137.0	-1221329.0	-16456.0	-723542.0
16	16	14	43	199	138.0	-1345674.0	-14534.0	-723476.0
16	16	14	43	199	139.0	-1450591.0	-13121.0	-723580.0
16	16	14	43	200	140.0	-1535569.0	-12077.0	-723487.0
16	16	14	43	200	141.0	-1596557.0	-11270.0	-723586.0
16	16	14	43	200	142.0	-1641797.0	-9875.0	-723574.0
16	16	14	43	201	143.0	-1658274.0	-9026.0	-723491.0
16	16	14	43	201	144.0	-1641686.0	-8170.0	-723474.0
16	16	14	43	216	145.0	-1596654.0	-7116.0	-723354.0
16	16	14	43	217	146.0	-1521862.0	-6496.0	-723386.0
16	16	14	43	217	147.0	-1423946.0	-5763.0	-723235.0
16	16	14	43	217	148.0	-1302029.0	-5566.0	-723373.0
16	16	14	43	218	150.0	-989306.0	-4548.0	-723607.0
16	16	14	43	218	151.0	-821611.0	-6037.0	-723375.0
16	16	14	43	218	152.0	-654891.0	-9162.0	-723583.0
16	16	14	43	218	153.0	-518330.0	-11066.0	-723272.0
16	16	14	43	219	154.0	-409531.0	-12626.0	-723499.0
16	16	14	43	219	155.0	-317402.0	-14012.0	-723349.0
16	16	14	43	240	156.0	-234924.0	-14781.0	-723539.0
16	16	14	43	240	157.0	-160793.0	-15269.0	-723316.0
16	16	14	43	240	158.0	-80582.0	-13282.0	-723652.0
16	16	14	43	241	159.0	14405.0	-10621.0	-723434.0
16	16	14	43	262	160.0	141014.0	-8434.0	-723605.0
16	16	14	43	262	161.0	299593.0	-6326.0	-723416.0
16	16	14	43	263	162.0	495021.0	-4578.0	-723361.0
16	16	14	43	263	163.0	733175.0	-3348.0	-723226.0
16	16	14	43	263	164.0	1033373.0	-2576.0	-723211.0
16	16	14	43	264	165.0	1380999.0	-1724.0	-723118.0
16	16	14	43	264	166.0	1755450.0	-1341.0	-723546.0
16	16	14	43	264	167.0	2131646.0	-740.0	-723474.0
16	16	14	43	265	168.0	2497434.0	326.0	-723839.0
16	16	14	43	265	169.0	2838750.0	708.0	-723579.0
16	16	14	43	266	170.0	3147682.0	1480.0	-723899.0
16	16	14	43	267	172.0	3640096.0	3628.0	-723983.0
16	16	14	43	268	173.0	3792721.0	3250.0	-723736.0
16	16	14	43	268	174.0	3845479.0	313.0	-724061.0
16	16	14	43	269	175.0	3763146.0	-2662.0	-723919.0
16	16	14	43	269	176.0	3539528.0	-4521.0	-724192.0
16	16	14	43	270	177.0	3234563.0	-6029.0	-724063.0
16	16	14	43	271	178.0	2879758.0	-6437.0	-724125.0
16	16	14	43	286	179.0	2351027.0	-6935.0	-723932.0
16	16	14	43	286	180.0	1401801.0	-6982.0	-723921.0
16	16	14	43	287	181.0	43810.0	-4314.0	-723900.0
16	16	14	43	289	182.0	-1372072.0	-2038.0	-723766.0
16	16	14	43	289	183.0	-2507362.0	-74.0	-723762.0
16	16	14	43	290	184.0	-3192309.0	1306.0	-723600.0
16	16	14	43	291	185.0	-3396263.0	2578.0	-723722.0
16	16	14	43	291	186.0	-3174597.0	3777.0	-723578.0
16	16	14	43	292	187.0	-2678076.0	4514.0	-723862.0
16	16	14	43	293	188.0	-1962759.0	5090.0	-723789.0
16	16	14	43	293	189.0	-1026687.0	5349.0	-724011.0
16	16	14	43	326	190.0	63777.0	5693.0	-723892.0
16	16	14	43	345	191.0	1176783.0	6285.0	-724128.0
16	16	14	43	345	192.0	2140162.0	7180.0	-723967.0
16	16	14	43	346	193.0	2743041.0	8071.0	-724268.0
16	16	14	43	346	195.0	2691207.0	8464.0	-724034.0
16	16	14	43	347	196.0	2127810.0	6490.0	-723833.0
16	16	14	43	347	197.0	1301575.0	3558.0	-723959.0
16	16	14	43	347	198.0	274485.0	1324.0	-723891.0
16	16	14	43	348	199.0	-774538.0	578.0	-723777.0
16	16	14	43	348	200.0	-1680823.0	2468.0	-723694.0
16	16	14	43	349	201.0	-2332937.0	4178.0	-723457.0
16	16	14	43	349	202.0	-2618712.0	5322.0	-723461.0
16	16	14	43	350	203.0	-2502204.0	6453.0	-723431.0
16	16	14	43	350	204.0	-2099015.0	6751.0	-723610.0
16	16	14	43	351	205.0	-1562617.0	7056.0	-723605.0
16	16	14	43	351	217.0	949665.0	10104.0	-723587.0
16	16	14	43	351	218.0	553939.0	9039.0	-723680.0
16	16	14	43	352	219.0	162293.0	5782.0	-723604.0
16	16	14	43	352	220.0	-160907.0	3363.0	-723924.0
16	16	14	43	353	221.0	-376886.0	2078.0	-723624.0
16	16	14	43	353	222.0	-483712.0	1084.0	-723874.0
16	16	14	43	354	223.0	-487849.0	649.0	-723616.0
16	16	14	43	373	224.0	-410814.0	43.0	-723801.0
16	16	14	43	374	225.0	-280172.0	-201.0	-723582.0
16	16	14	43	374	226.0	-106457.0	2174.0	-723847.0
16	16	14	43	374	227.0	114531.0	4408.0	-723742.0
16	16	14	43	395	228.0	341706.0	5953.0	-723816.0
16	16	14	43	395	229.0	552828.0	6913.0	-723770.0
16	16	14	43	395	230.0	724298.0	7494.0	-723741.0
16	16	14	43	395	231.0	866747.0	8433.0	-723762.0
16	16	14	43	396	232.0	959975.0	9573.0	-723711.0
16	16	14	43	396	233.0	1007881.0	10034.0	-723831.0
16	16	14	43	396	234.0	999720.0	9950.0	-723802.0
16	16	14	43	396	235.0	929617.0	10464.0	-724134.0
16	16	14	43	397	236.0	800686.0	10206.0	-723936.0
16	16	14	43	397	237.0	639448.0	10409.0	-723943.0
16	16	14	43	397	238.0	479162.0	10575.0	-723691.0
16	16	14	43	397	240.0	183573.0	11043.0	-723562.0
16	16	14	43	398	241.0	38594.0	9372.0	-723786.0
16	16	14	43	398	242.0	-62146.0	6450.0	-723576.0
16	16	14	43	398	243.0	-104632.0	4072.0	-723632.0
16	16	14	43	398	244.0	-110098.0	2407.0	-723443.0
16	16	14	43	399	245.0	-86494.0	1461.0	-723549.0
16	16	14	43	417	246.0	-29098.0	393.0	-723469.0
16	16	14	43	418	247.0	56620.0	115.0	-723291.0
16	16	14	43	418	248.0	176278.0	2705.0	-723244.0
16	16	14	43	419	249.0	311317.0	6026.0	-723270.0
16	16	14	43	419	250.0	430781.0	7910.0	-723245.0
16	16	14	43	420	251.0	528121.0	9400.0	-723388.0
16	16	14	43	420	252.0	613001.0	10246.0	-723514.0
16	16	14	43	421	253.0	698019.0	11545.0	-723492.0
16	16	14	43	433	254.0	756885.0	12929.0	-723598.0
16	16	14	43	433	255.0	793586.0	14233.0	-723522.0
16	16	14	43	433	0.0	817997.0	15132.0	-723751.0
16	16	14	43	434	1.0	798976.0	15834.0	-723476.0
16	16	14	43	434	2.0	760874.0	16996.0	-723784.0
16	16	14	43	434	3.0	685114.0	18522.0	-723466.0
16	16	14	43	434	4.0	578504.0	20501.0	-723785.0
16	16	14	43	434	6.0	257235.0	23084.0	-723813.0
16	16	14	43	434	7.0	50501.0	23646.0	-723519.0
16	16	14	43	435	8.0	-167279.0	22230.0	-723637.0
16	16	14	43	435	9.0	-371844.0	21690.0	-723357.0
16	16	14	43	435	10.0	-541343.0	22197.0	-723657.0
16	16	14	43	435	11.0	-678999.0	22623.0	-723391.0
16	16	14	43	436	12.0	-788618.0	23434.0	-723776.0
16	16	14	43	462	13.0	-873360.0	25136.0	-723647.0
16	16	14	43	462	14.0	-951431.0	27778.0	-723921.0
16	16	14	43	479	15.0	-1040957.0	32799.0	-723836.0
16	16	14	43	479	16.0	-1145487.0	37791.0	-723903.0
16	16	14	43	479	17.0	-1251611.0	42315.0	-723859.0
16	16	14	43	480	18.0	-1354119.0	46117.0	-723802.0
16	16	14	43	480	19.0	-1457371.0	50096.0	-723676.0
16	16	14	43	480	20.0	-1540654.0	53008.0	-723578.0
16	16	14	43	480	21.0	-1603524.0	56288.0	-723654.0
16	16	14	43	481	22.0	-1644636.0	58854.0	-723532.0
16	16	14	43	481	23.0	-1661066.0	61286.0	-723729.0
16	16	14	43	481	24.0	-1637387.0	64131.0	-723534.0
16	16	14	43	481	25.0	-1586159.0	66261.0	-723656.0
16	16	14	43	482	26.0	-1501366.0	68511.0	-723417.0
16	16	14	43	482	27.0	-1383101.0	70614.0	-723570.0
16	16	14	43	482	29.0	-1098687.0	74352.0	-723684.0
16	16	14	43	483	30.0	-929039.0	73770.0	-723517.0
16	16	14	43	483	31.0	-748296.0	72509.0	-723743.0
16	16	14	43	483	32.0	-546959.0	71576.0	-723585.0
16	16	14	43	483	33.0	-333156.0	71006.0	-723820.0
16	16	14	43	484	34.0	-102067.0	71113.0	-723794.0
16	16	14	43	508	35.0	165013.0	71251.0	-723749.0
16	16	14	43	529	36.0	441001.0	71714.0	-723690.0
16	16	14	43	530	37.0	728475.0	74105.0	-723659.0
16	16	14	43	530	38.0	1018858.0	77100.0	-723657.0
16	16	14	43	530	39.0	1271504.0	79584.0	-723646.0
16	16	14	43	531	40.0	1497408.0	81298.0	-723761.0
16	16	14	43	531	41.0	1694411.0	82029.0	-723645.0
16	16	14	43	531	42.0	1852282.0	82516.0	-723772.0
16	16	14	43	531	43.0	1980233.0	82299.0	-723520.0
16	16	14	43	532	44.0	2083824.0	81967.0	-723502.0
16	16	14	43	532	45.0	2159251.0	81109.0	-723322.0
16	16	14	43	532	46.0	2189159.0	80262.0	-723682.0
16	16	14	43	533	47.0	2174467.0	79385.0	-723386.0
16	16	14	43	533	48.0	2105216.0	78003.0	-723709.0
16	16	14	43	533	49.0	1989978.0	76403.0	-723421.0
16	16	14	43	534	51.0	1609252.0	72648.0	-723247.0
16	16	14	43	534	52.0	1346326.0	69708.0	-723438.0
16	16	14	43	534	53.0	1009705.0	64346.0	-723357.0
16	16	14	43	535	54.0	534313.0	59649.0	-723629.0
16	16	14	43	535	55.0	-138724.0	55316.0	-723247.0
16	16	14	43	535	56.0	-930757.0	51379.0	-723409.0
16	16	14	43	536	57.0	-1458791.0	47779.0	-723021.0
16	16	14	43	552	58.0	-1488975.0	44301.0	-723349.0
16	16	14	43	553	59.0	-1171702.0	41746.0	-723239.0
16	16	14	43	554	60.0	-692472.0	41684.0	-723666.0
16	16	14	43	555	61.0	-217857.0	40869.0	-723569.0
16	16	14	43	555	62.0	167823.0	39294.0	-723759.0
16	16	14	43	556	63.0	514583.0	37368.0	-723644.0
16	16	14	43	556	64.0	805593.0	35503.0	-723702.0
16	16	14	43	556	65.0	1036037.0	33689.0	-723740.0
16	16	14	43	572	66.0	1226127.0	31778.0	-723837.0
16	16	14	43	573	67.0	1271959.0	29528.0	-723978.0
16	16	14	43	573	68.0	1168614.0	27235.0	-723841.0
16	16	14	43	573	69.0	995419.0	24708.0	-723929.0
16	16	14	43	574	70.0	772802.0	21920.0	-723784.0
16	16	14	43	574	71.0	531890.0	18512.0	-723911.0
16	16	14	43	574	72.0	317996.0	16164.0	-723691.0
16	16	14	43	574	74.0	24606.0	10794.0	-723679.0
16	16	14	43	575	75.0	-51071.0	6128.0	-724022.0
16	16	14	43	575	76.0	-101270.0	993.0	-723854.0
16	16	14	43	575	77.0	-142444.0	-3606.0	-723937.0
16	16	14	43	576	78.0	-200865.0	-7569.0	-723706.0
16	16	14	43	576	79.0	-294052.0	-10657.0	-723766.0
16	16	14	43	644	80.0	-416848.0	-13255.0	-723572.0
16	16	14	43	645	81.0	-526880.0	-15521.0	-723642.0
16	16	14	43	645	82.0	-573101.0	-14830.0	-723536.0
16	16	14	43	668	83.0	-537635.0	-14551.0	-723576.0
16	16	14	43	669	84.0	-403649.0	-14496.0	-723644.0
16	16	14	43	670	85.0	-171311.0	-14495.0	-723595.0
16	16	14	43	670	86.0	118397.0	-15076.0	-723771.0
16	16	14	43	671	87.0	427510.0	-15749.0	-723611.0
16	16	14	43	671	88.0	688792.0	-16683.0	-723821.0
16	16	14	43	672	89.0	883966.0	-17651.0	-723597.0
16	16	14	43	672	90.0	994009.0	-18509.0	-723886.0
16	16	14	43	673	91.0	1020299.0	-19717.0	-723742.0
16	16	14	43	673	92.0	972721.0	-20007.0	-724029.0
16	16	14	43	674	93.0	882063.0	-20253.0	-723671.0
16	16	14	43	674	94.0	758237.0	-21666.0	-724141.0
16	16	14	43	674	119.0	-164687.0	-35696.0	-724209.0
16	16	14	43	675	120.0	-68455.0	-38577.0	-723972.0
16	16	14	43	676	121.0	15466.0	-41579.0	-723906.0
16	16	14	43	676	122.0	88908.0	-43415.0	-723653.0
16	16	14	43	677	123.0	154816.0	-44692.0	-723687.0
16	16	14	43	677	124.0	209880.0	-45210.0	-723481.0
16	16	14	43	702	125.0	257269.0	-45833.0	-723637.0
16	16	14	43	702	126.0	294587.0	-45238.0	-723486.0
16	16	14	43	703	127.0	320357.0	-42109.0	-723709.0
16	16	14	43	703	128.0	315798.0	-38647.0	-723596.0
16	16	14	43	704	129.0	278980.0	-36324.0	-723549.0
16	16	14	43	704	130.0	216749.0	-34666.0	-723363.0
16	16	14	43	704	131.0	136031.0	-32799.0	-723347.0
16	16	14	43	705	132.0	46073.0	-30757.0	-723289.0
16	16	14	43	705	133.0	-60453.0	-29069.0	-723284.0
16	16	14	43	705	134.0	-183354.0	-27514.0	-723389.0
16	16	14	43	706	135.0	-308663.0	-26220.0	-723189.0
16	16	14	43	706	136.0	-427789.0	-25784.0	-723282.0
16	16	14	43	706	137.0	-528352.0	-25349.0	-722997.0
16	16	14	43	707	138.0	-599616.0	-24361.0	-723047.0
16	16	14	43	707	139.0	-640838.0	-23252.0	-722931.0
16	16	14	43	707	141.0	-634636.0	-21497.0	-723037.0
16	16	14	43	723	142.0	-585152.0	-21600.0	-723380.0
16	16	14	43	724	143.0	-507131.0	-23724.0	-723089.0
16	16	14	43	742	144.0	-396481.0	-25043.0	-723426.0
16	16	14	43	743	145.0	-262771.0	-26174.0	-723126.0
16	16	14	43	743	146.0	-96026.0	-26521.0	-723409.0
16	16	14	43	743	147.0	89936.0	-26732.0	-723061.0
16	16	14	43	743	148.0	290024.0	-24772.0	-723387.0
16	16	14	43	744	149.0	495970.0	-20654.0	-723155.0
16	16	14	43	744	150.0	690578.0	-17652.0	-723354.0
16	16	14	43	744	151.0	861553.0	-15600.0	-723136.0
16	16	14	43	744	152.0	1007464.0	-13674.0	-723329.0
16	16	14	43	744	153.0	1129169.0	-12459.0	-723252.0
16	16	14	43	745	154.0	1231135.0	-10786.0	-723361.0
16	16	14	43	745	155.0	1321649.0	-8956.0	-723394.0
16	16	14	43	745	156.0	1404436.0	-7839.0	-723380.0
16	16	14	43	746	157.0	1474338.0	-6664.0	-723321.0
16	16	14	43	746	158.0	1533522.0	-6498.0	-723407.0
16	16	14	43	746	164.0	1408122.0	-3049.0	-723577.0
16	16	14	43	746	165.0	1305104.0	-5662.0	-723900.0
16	16	14	43	747	166.0	1210565.0	-7906.0	-723692.0
16	16	14	43	762	167.0	1129043.0	-9414.0	-723916.0
16	16	14	43	762	168.0	1070388.0	-10531.0	-723840.0
16	16	14	43	763	169.0	1032556.0	-11503.0	-723967.0
16	16	14	43	781	170.0	1003284.0	-12124.0	-723832.0
16	16	14	43	781	171.0	971278.0	-11527.0	-724117.0
16	16	14	43	781	172.0	929113.0	-9294.0	-724108.0
16	16	14	43	782	173.0	867696.0	-7866.0	-724183.0
16	16	14	43	782	174.0	795303.0	-6450.0	-724169.0
16	16	14	43	782	175.0	734649.0	-5774.0	-724165.0
16	16	14	43	783	176.0	662568.0	-5633.0	-724276.0
16	16	14	43	783	177.0	592879.0	-5076.0	-723928.0
16	16	14	43	799	178.0	535652.0	-4364.0	-723738.0
16	16	14	43	799	179.0	475983.0	-4324.0	-723565.0
16	16	14	43	800	180.0	415348.0	-4274.0	-723812.0
16	16	14	43	800	181.0	346844.0	-3819.0	-723620.0
16	16	14	43	800	182.0	277288.0	-4047.0	-723889.0
16	16	14	43	800	183.0	226607.0	-4549.0	-723537.0
16	16	14	43	801	184.0	181680.0	-4267.0	-723748.0
16	16	14	43	801	186.0	74054.0	-4769.0	-723798.0
16	16	14	43	801	187.0	15155.0	-6495.0	-723509.0
16	16	14	43	801	188.0	-54601.0	-10161.0	-723633.0
16	16	14	43	802	189.0	-128101.0	-12806.0	-723577.0
16	16	14	43	802	190.0	-185967.0	-15101.0	-723938.0
16	16	14	43	802	191.0	-222641.0	-16926.0	-723917.0
16	16	14	43	822	192.0	-240863.0	-18299.0	-724266.0
16	16	14	43	822	193.0	-256217.0	-19132.0	-724048.0
16	16	14	43	823	194.0	-284500.0	-17704.0	-724336.0
16	16	14	43	836	195.0	-329203.0	-15259.0	-723955.0
16	16	14	43	836	196.0	-384824.0	-14117.0	-724244.0
16	16	14	43	837	197.0	-456628.0	-12461.0	-723997.0
16	16	14	43	837	198.0	-529086.0	-11426.0	-724290.0
16	16	14	43	837	199.0	-585724.0	-10868.0	-724033.0
16	16	14	43	837	200.0	-623622.0	-10232.0	-724249.0
16	16	14	43	838	201.0	-635606.0	-9879.0	-724025.0
16	16	14	43	838	202.0	-647473.0	-9724.0	-724170.0
16	16	14	43	838	203.0	-661976.0	-9459.0	-724098.0
16	16	14	43	838	204.0	-676925.0	-10189.0	-724246.0
16	16	14	43	839	205.0	-702609.0	-10279.0	-724272.0
16	16	14	43	839	206.0	-746617.0	-10101.0	-724277.0
16	16	14	43	839	209.0	-898821.0	-11341.0	-724632.0
16	16	14	43	839	210.0	-946064.0	-14481.0	-724512.0
16	16	14	43	840	211.0	-987391.0	-17533.0	-724586.0
16	16	14	43	840	212.0	-1015572.0	-19366.0	-724389.0
16	16	14	43	840	213.0	-1027098.0	-21041.0	-724512.0
16	16	14	43	840	214.0	-1020831.0	-22311.0	-724254.0
16	16	14	43	868	215.0	-995422.0	-23231.0	-724301.0
16	16	14	43	868	216.0	-958623.0	-23005.0	-724065.0
16	16	14	43	869	217.0	-897029.0	-20173.0	-724147.0
16	16	14	43	870	218.0	-820079.0	-18039.0	-723880.0
16	16	14	43	870	219.0	-740032.0	-16317.0	-724132.0
16	16	14	43	870	220.0	-655050.0	-14504.0	-723954.0
16	16	14	43	870	221.0	-563191.0	-13711.0	-724049.0
16	16	14	43	871	222.0	-462522.0	-13141.0	-723831.0
16	16	14	43	880	223.0	-365304.0	-12846.0	-723957.0
16	16	14	43	880	224.0	-259169.0	-12749.0	-723750.0
16	16	14	43	880	225.0	-139066.0	-12376.0	-723878.0
16	16	14	43	880	226.0	-9263.0	-11865.0	-723849.0
16	16	14	43	881	227.0	103864.0	-12049.0	-723821.0
16	16	14	43	881	228.0	191743.0	-11398.0	-723804.0
16	16	14	43	881	229.0	276024.0	-11635.0	-723830.0
16	16	14	43	881	231.0	423795.0	-11031.0	-723882.0
16	16	14	43	882	232.0	489696.0	-13050.0	-723986.0
16	16	14	43	882	233.0	555014.0	-16365.0	-723607.0
16	16	14	43	900	234.0	610754.0	-18109.0	-723780.0
16	16	14	43	901	235.0	653122.0	-19499.0	-723906.0
16	16	14	43	901	236.0	667680.0	-20623.0	-724150.0
16	16	14	43	920	237.0	652042.0	-20929.0	-724046.0
16	16	14	43	921	238.0	623644.0	-21592.0	-724384.0
16	16	14	43	921	239.0	590629.0	-19889.0	-724209.0
16	16	14	43	921	240.0	561938.0	-16777.0	-724475.0
16	16	14	43	922	241.0	537039.0	-14764.0	-724220.0
16	16	14	43	922	242.0	507475.0	-13092.0	-724469.0
16	16	14	43	922	243.0	476386.0	-11456.0	-724095.0
16	16	14	43	922	244.0	441633.0	-10292.0	-724286.0
16	16	14	43	923	245.0	392940.0	-8821.0	-723957.0
16	16	14	43	923	246.0	342395.0	-8260.0	-724271.0
16	16	14	43	923	247.0	304590.0	-7672.0	-724092.0
16	16	14	43	923	248.0	288491.0	-7168.0	-724312.0
16	16	14	43	923	249.0	277499.0	-6297.0	-724186.0
16	16	14	43	924	250.0	270031.0	-5649.0	-724402.0
16	16	14	43	924	251.0	268343.0	-5557.0	-724392.0
16	16	14	43	940	253.0	305381.0	-4987.0	-724420.0
16	16	14	43	940	254.0	340211.0	-4922.0	-724403.0
16	16	14	43	940	255.0	379714.0	-7560.0	-724351.0
16	16	14	43	941	0.0	400561.0	-10319.0	-724362.0
16	16	14	43	941	1.0	393155.0	-12327.0	-724448.0
16	16	14	43	941	2.0	384616.0	-13256.0	-724302.0
16	16	14	43	942	3.0	383761.0	-13973.0	-724396.0
16	16	14	43	961	4.0	389130.0	-13859.0	-724187.0
16	16	14	43	961	5.0	433257.0	-13724.0	-724296.0
16	16	14	43	962	6.0	517901.0	-10972.0	-724077.0
16	16	14	43	962	7.0	649139.0	-7865.0	-724308.0
16	16	14	43	963	8.0	813797.0	-5658.0	-724171.0
16	16	14	43	963	9.0	987124.0	-3907.0	-724476.0
16	16	14	43	964	10.0	1160456.0	-2705.0	-724378.0
16	16	14	43	964	11.0	1341794.0	-1364.0	-724615.0
16	16	14	43	965	12.0	1533766.0	-49.0	-724402.0
16	16	14	43	965	13.0	1726501.0	915.0	-724537.0
16	16	14	43	966	14.0	1917071.0	2168.0	-724409.0
16	16	14	43	966	15.0	2087917.0	3137.0	-724406.0
16	16	14	43	967	16.0	2194294.0	3537.0	-724304.0
16	16	14	43	967	17.0	2193536.0	4041.0	-724258.0
16	16	14	43	968	18.0	2056153.0	4936.0	-724205.0
16	16	14	43	968	20.0	1513093.0	5423.0	-723998.0
16	16	14	43	969	21.0	1077104.0	3604.0	-723772.0
16	16	14	43	969	22.0	287429.0	533.0	-723801.0
16	16	14	43	970	23.0	-908004.0	-1461.0	-723547.0
16	16	14	43	970	24.0	-2185112.0	-2187.0	-723656.0
16	16	14	43	970	25.0	-3190510.0	-3018.0	-723241.0
16	16	14	44	2	26.0	-3759691.0	-3810.0	-723574.0
16	16	14	44	2	27.0	-3848712.0	-3671.0	-723299.0
16	16	14	44	2	28.0	-3513707.0	-1323.0	-723822.0
16	16	14	44	3	29.0	-2910728.0	931.0	-723737.0
16	16	14	44	14	30.0	-2141155.0	2331.0	-724282.0
16	16	14	44	15	31.0	-1218112.0	3899.0	-724144.0
16	16	14	44	48	32.0	-167091.0	4379.0	-724679.0
16	16	14	44	48	33.0	920252.0	4724.0	-724525.0
16	16	14	44	49	34.0	1916886.0	5591.0	-724769.0
16	16	14	44	50	35.0	2613932.0	7226.0	-724598.0
16	16	14	44	50	36.0	2877200.0	8411.0	-724606.0
16	16	14	44	51	37.0	2726606.0	8861.0	-724475.0
16	16	14	44	51	38.0	2258750.0	9246.0	-724500.0
16	16	14	44	63	39.0	1489411.0	9219.0	-724501.0
16	16	14	44	63	40.0	487167.0	8690.0	-724388.0
16	16	14	44	64	42.0	-1443560.0	7694.0	-724144.0
16	16	14	44	64	43.0	-2046559.0	7595.0	-724208.0
16	16	14	44	64	44.0	-2305949.0	4698.0	-724001.0
16	16	14	44	64	45.0	-2234082.0	2983.0	-724102.0
16	16	14	44	65	46.0	-1921087.0	4285.0	-723973.0
16	16	14	44	65	47.0	-1491547.0	5319.0	-724169.0
16	16	14	44	65	65.0	-919445.0	8831.0	-723632.0
16	16	14	44	66	66.0	-849536.0	7369.0	-723798.0
16	16	14	44	66	67.0	-742253.0	4946.0	-723466.0
16	16	14	44	66	68.0	-598701.0	2921.0	-723743.0
16	16	14	44	67	69.0	-424813.0	1286.0	-723500.0
16	16	14	44	67	70.0	-230126.0	418.0	-723749.0
16	16	14	44	92	71.0	-31792.0	-457.0	-723467.0
16	16	14	44	93	72.0	142358.0	-579.0	-723876.0
16	16	14	44	93	73.0	265053.0	1696.0	-723641.0
16	16	14	44	114	74.0	342819.0	4407.0	-723952.0
16	16	14	44	115	75.0	373818.0	6573.0	-723939.0
16	16	14	44	115	76.0	358727.0	7795.0	-724162.0
16	16	14	44	115	77.0	298265.0	8143.0	-723792.0
16	16	14	44	116	78.0	184228.0	8823.0	-724019.0
16	16	14	44	116	79.0	40646.0	9762.0	-723694.0
16	16	14	44	116	80.0	-124877.0	10115.0	-723868.0
16	16	14	44	117	81.0	-288416.0	10017.0	-723653.0
16	16	14	44	117	82.0	-434901.0	10070.0	-723849.0
16	16	14	44	117	83.0	-554157.0	10244.0	-723627.0
16	16	14	44	118	84.0	-643437.0	9701.0	-723732.0
16	16	14	44	118	85.0	-727117.0	10126.0	-723652.0
16	16	14	44	118	87.0	-853591.0	10782.0	-723497.0
16	16	14	44	118	88.0	-891030.0	10420.0	-723518.0
16	16	14	44	119	89.0	-920992.0	7110.0	-723647.0
16	16	14	44	119	90.0	-953977.0	4629.0	-723566.0
16	16	14	44	119	91.0	-989109.0	3189.0	-723731.0
16	16	14	44	120	92.0	-1014474.0	1962.0	-723616.0
16	16	14	44	120	93.0	-1028963.0	924.0	-723706.0
16	16	14	44	137	94.0	-1034104.0	153.0	-723505.0
16	16	14	44	138	95.0	-1047306.0	768.0	-723608.0
16	16	14	44	139	96.0	-1060984.0	3998.0	-723528.0
16	16	14	44	140	97.0	-1065906.0	7364.0	-723837.0
16	16	14	44	140	98.0	-1076415.0	9985.0	-723587.0
16	16	14	44	161	99.0	-1071542.0	12056.0	-723863.0
16	16	14	44	161	100.0	-1041851.0	13933.0	-723731.0
16	16	14	44	162	101.0	-999860.0	15392.0	-723798.0
16	16	14	44	162	102.0	-943334.0	17230.0	-723650.0
16	16	14	44	162	103.0	-875669.0	19098.0	-723679.0
16	16	14	44	162	104.0	-799726.0	21005.0	-723546.0
16	16	14	44	163	105.0	-715766.0	22503.0	-723507.0
16	16	14	44	163	106.0	-612683.0	24959.0	-723441.0
16	16	14	44	163	107.0	-494774.0	27898.0	-723396.0
16	16	14	44	164	108.0	-376060.0	29636.0	-723361.0
16	16	14	44	164	110.0	-168153.0	33333.0	-723609.0
16	16	14	44	164	111.0	-99631.0	33317.0	-723388.0
16	16	14	44	164	112.0	-53742.0	32661.0	-723511.0
16	16	14	44	165	113.0	-18767.0	32988.0	-723222.0
16	16	14	44	165	114.0	17860.0	33883.0	-723275.0
16	16	14	44	165	115.0	34873.0	35393.0	-722905.0
16	16	14	44	183	116.0	35189.0	37083.0	-723147.0
16	16	14	44	183	117.0	22439.0	39690.0	-722854.0
16	16	14	44	183	118.0	-1064.0	44773.0	-723123.0
16	16	14	44	206	119.0	-34920.0	50057.0	-722804.0
16	16	14	44	206	120.0	-79479.0	54019.0	-723152.0
16	16	14	44	207	121.0	-126199.0	57987.0	-722881.0
16	16	14	44	207	122.0	-159656.0	61534.0	-723187.0
16	16	14	44	207	123.0	-187312.0	65211.0	-723007.0
16	16	14	44	208	124.0	-206723.0	68254.0	-723076.0
16	16	14	44	208	125.0	-197211.0	70687.0	-722926.0
16	16	14	44	208	126.0	-165526.0	73241.0	-723064.0
16	16	14	44	208	127.0	-129203.0	75910.0	-722945.0
16	16	14	44	209	128.0	-64308.0	77583.0	-723461.0
16	16	14	44	209	129.0	18952.0	79336.0	-723195.0
16	16	14	44	209	130.0	103885.0	81003.0	-723468.0
16	16	14	44	210	132.0	240566.0	83228.0	-723327.0
16	16	14	44	210	133.0	287149.0	83388.0	-723067.0
16	16	14	44	210	134.0	330619.0	81859.0	-723346.0
16	16	14	44	210	135.0	353745.0	80178.0	-723245.0
16	16	14	44	211	136.0	362564.0	78712.0	-723521.0
16	16	14	44	211	137.0	370238.0	77513.0	-723471.0
16	16	14	44	211	138.0	401147.0	76435.0	-723464.0
16	16	14	44	229	139.0	469688.0	75412.0	-723459.0
16	16	14	44	252	140.0	566106.0	75106.0	-723522.0
16	16	14	44	253	141.0	675496.0	76819.0	-723586.0
16	16	14	44	253	142.0	765627.0	78058.0	-723494.0
16	16	14	44	253	143.0	832506.0	78702.0	-723582.0
16	16	14	44	254	144.0	860210.0	78979.0	-723484.0
16	16	14	44	254	145.0	850293.0	78906.0	-723559.0
16	16	14	44	254	146.0	823152.0	78291.0	-723364.0
16	16	14	44	254	147.0	782286.0	77382.0	-723541.0
16	16	14	44	255	148.0	718004.0	76281.0	-723315.0
16	16	14	44	255	149.0	613643.0	75354.0	-723528.0
16	16	14	44	255	150.0	452684.0	72903.0	-723336.0
16	16	14	44	256	151.0	196469.0	69468.0	-723473.0
16	16	14	44	256	152.0	-219316.0	66944.0	-723263.0
16	16	14	44	256	153.0	-809715.0	64937.0	-723396.0
16	16	14	44	256	155.0	-1490531.0	59634.0	-723234.0
16	16	14	44	257	156.0	-1249402.0	54588.0	-723156.0
16	16	14	44	257	157.0	-811832.0	49091.0	-723148.0
16	16	14	44	257	158.0	-271179.0	44355.0	-723078.0
16	16	14	44	258	159.0	237245.0	39944.0	-723324.0
16	16	14	44	258	160.0	667501.0	36115.0	-723469.0
16	16	14	44	276	161.0	1005531.0	32295.0	-723421.0
16	16	14	44	276	162.0	1165179.0	29111.0	-723448.0
16	16	14	44	277	163.0	1204126.0	28540.0	-723407.0
16	16	14	44	277	164.0	1134126.0	27570.0	-723760.0
16	16	14	44	278	165.0	902689.0	26116.0	-723514.0
16	16	14	44	278	166.0	566611.0	24459.0	-723648.0
16	16	14	44	279	167.0	181088.0	22488.0	-723327.0
16	16	14	44	279	168.0	-213784.0	20035.0	-723666.0
16	16	14	44	280	169.0	-550906.0	16995.0	-723342.0
16	16	14	44	280	170.0	-787919.0	14740.0	-723675.0
16	16	14	44	281	171.0	-912848.0	12653.0	-723673.0
16	16	14	44	281	172.0	-958467.0	9809.0	-723823.0
16	16	14	44	282	173.0	-963437.0	7409.0	-723587.0
16	16	14	44	283	174.0	-975570.0	4508.0	-723942.0
16	16	14	44	283	175.0	-1038593.0	1935.0	-723650.0
16	16	14	44	284	177.0	-1352780.0	-2329.0	-723603.0
16	16	14	44	285	178.0	-1557977.0	-5491.0	-723826.0
16	16	14	44	285	179.0	-1776542.0	-11216.0	-723472.0
16	16	14	44	286	180.0	-1948654.0	-15893.0	-723608.0
16	16	14	44	286	181.0	-1960872.0	-19553.0	-723433.0
16	16	14	44	286	182.0	-1781769.0	-22400.0	-723565.0
16	16	14	44	287	183.0	-1431264.0	-25159.0	-723470.0
16	16	14	44	364	184.0	-1018476.0	-28116.0	-723600.0
16	16	14	44	365	185.0	-629149.0	-28927.0	-723637.0
16	16	14	44	366	186.0	-300878.0	-27055.0	-723636.0
16	16	14	44	366	187.0	-44127.0	-26163.0	-723723.0
16	16	14	44	367	188.0	135819.0	-25730.0	-723645.0
16	16	14	44	384	189.0	260309.0	-25056.0	-723597.0
16	16	14	44	385	190.0	361318.0	-25079.0	-723483.0
16	16	14	44	386	191.0	444216.0	-25648.0	-723662.0
16	16	14	44	387	192.0	508050.0	-25890.0	-723497.0
16	16	14	44	387	193.0	566419.0	-26395.0	-723629.0
16	16	14	44	388	194.0	609173.0	-26701.0	-723409.0
16	16	14	44	388	195.0	605031.0	-27327.0	-723560.0
16	16	14	44	389	196.0	604682.0	-27746.0	-723351.0
16	16	14	44	389	197.0	594464.0	-28069.0	-723539.0
16	16	14	44	390	198.0	593431.0	-28387.0	-723369.0
16	16	14	44	390	222.0	1646507.0	-35831.0	-723686.0
16	16	14	44	391	223.0	1736096.0	-36878.0	-723556.0
16	16	14	44	391	224.0	1821896.0	-40180.0	-723990.0
16	16	14	44	392	225.0	1893427.0	-42776.0	-723762.0
16	16	14	44	392	226.0	1940754.0	-43952.0	-724030.0
16	16	14	44	393	227.0	1952561.0	-44672.0	-723709.0
16	16	14	44	394	228.0	1924244.0	-45241.0	-723858.0
16	16	14	44	425	229.0	1863354.0	-45198.0	-723607.0
16	16	14	44	425	230.0	1788561.0	-43501.0	-723905.0
16	16	14	44	426	231.0	1718599.0	-39544.0	-723825.0
16	16	14	44	426	232.0	1649597.0	-35781.0	-724114.0
16	16	14	44	426	233.0	1581604.0	-32835.0	-724173.0
16	16	14	44	427	234.0	1501894.0	-30397.0	-724174.0
16	16	14	44	427	235.0	1396021.0	-28149.0	-724144.0
16	16	14	44	427	236.0	1258188.0	-26480.0	-724256.0
16	16	14	44	427	237.0	1099711.0	-25384.0	-724462.0
16	16	14	44	427	238.0	933199.0	-23673.0	-724410.0
16	16	14	44	428	239.0	771337.0	-22438.0	-724545.0
16	16	14	44	428	240.0	620118.0	-21317.0	-724316.0
16	16	14	44	428	241.0	487020.0	-20512.0	-724521.0
16	16	14	44	429	242.0	361871.0	-20001.0	-724349.0
16	16	14	44	499	243.0	249489.0	-19147.0	-724631.0
16	16	14	44	500	245.0	21723.0	-17072.0	-724451.0
16	16	14	44	500	246.0	-93153.0	-18258.0	-724208.0
16	16	14	44	501	247.0	-114701.0	-19924.0	-724281.0
16	16	14	44	502	248.0	-157167.0	-21109.0	-724028.0
16	16	14	44	503	249.0	-167871.0	-21646.0	-724219.0
16	16	14	44	503	250.0	-185528.0	-20687.0	-724111.0
16	16	14	44	504	251.0	-241698.0	-17089.0	-724151.0
16	16	14	44	505	252.0	-321908.0	-14889.0	-723962.0
16	16	14	44	518	253.0	-414367.0	-12479.0	-723932.0
16	16	14	44	519	254.0	-508162.0	-10144.0	-723861.0
16	16	14	44	520	255.0	-607475.0	-8850.0	-723880.0
16	16	14	44	521	0.0	-712734.0	-7279.0	-723946.0
16	16	14	44	521	1.0	-822762.0	-5762.0	-723784.0
16	16	14	44	522	2.0	-933839.0	-4604.0	-723839.0
16	16	14	44	523	11.0	-1293279.0	129.0	-723426.0
16	16	14	44	523	34.0	307014.0	-7092.0	-723356.0
16	16	14	44	524	35.0	374424.0	-10039.0	-723626.0
16	16	14	44	524	36.0	433918.0	-12964.0	-723350.0
16	16	14	44	525	37.0	483353.0	-15477.0	-723660.0
16	16	14	44	526	38.0	526554.0	-16894.0	-723455.0
16	16	14	44	526	39.0	560796.0	-18533.0	-723546.0
16	16	14	44	562	40.0	584111.0	-19862.0	-723367.0
16	16	14	44	562	41.0	609549.0	-20699.0	-723592.0
16	16	14	44	563	42.0	640298.0	-19434.0	-723571.0
16	16	14	44	563	43.0	674938.0	-17579.0	-723767.0
16	16	14	44	564	44.0	722976.0	-15670.0	-723804.0
16	16	14	44	564	45.0	780943.0	-13899.0	-723756.0
16	16	14	44	565	46.0	842029.0	-13179.0	-723789.0
16	16	14	44	565	47.0	902884.0	-13160.0	-724098.0
16	16	14	44	565	48.0	954886.0	-12947.0	-724111.0
16	16	14	44	566	49.0	1002931.0	-11989.0	-724197.0
16	16	14	44	566	50.0	1046493.0	-11661.0	-724231.0
16	16	14	44	566	51.0	1083930.0	-11210.0	-724054.0
16	16	14	44	567	52.0	1118484.0	-11347.0	-724173.0
16	16	14	44	567	53.0	1138938.0	-11221.0	-723981.0
16	16	14	44	567	54.0	1132872.0	-11141.0	-724147.0
16	16	14	44	568	56.0	1044617.0	-11449.0	-723939.0
16	16	14	44	568	57.0	987425.0	-12891.0	-723691.0
16	16	14	44	568	58.0	939681.0	-16483.0	-723980.0
16	16	14	44	569	59.0	905649.0	-18777.0	-723761.0
16	16	14	44	569	60.0	882791.0	-20660.0	-723912.0
16	16	14	44	569	61.0	860583.0	-21737.0	-723648.0
16	16	14	44	588	62.0	820995.0	-22346.0	-723825.0
16	16	14	44	589	63.0	770278.0	-22851.0	-723603.0
16	16	14	44	589	64.0	714339.0	-21941.0	-723790.0
16	16	14	44	590	65.0	635676.0	-19328.0	-723632.0
16	16	14	44	614	66.0	549089.0	-17296.0	-723798.0
16	16	14	44	615	67.0	452820.0	-15771.0	-723644.0
16	16	14	44	615	68.0	337556.0	-14661.0	-723829.0
16	16	14	44	616	69.0	209816.0	-13514.0	-723861.0
16	16	14	44	616	70.0	78434.0	-13127.0	-723810.0
16	16	14	44	616	71.0	-38725.0	-12546.0	-723788.0
16	16	14	44	617	72.0	-141761.0	-12298.0	-723796.0
16	16	14	44	617	73.0	-237429.0	-11349.0	-724001.0
16	16	14	44	617	74.0	-320090.0	-10838.0	-723811.0
16	16	14	44	618	75.0	-379677.0	-10832.0	-723967.0
16	16	14	44	618	76.0	-422017.0	-10386.0	-723769.0
16	16	14	44	618	79.0	-447125.0	-9937.0	-724241.0
16	16	14	44	619	80.0	-433496.0	-12436.0	-723991.0
16	16	14	44	619	81.0	-431794.0	-15263.0	-724234.0
16	16	14	44	619	82.0	-447475.0	-17153.0	-723917.0
16	16	14	44	619	83.0	-480654.0	-18240.0	-724078.0
16	16	14	44	620	84.0	-539639.0	-19196.0	-723843.0
16	16	14	44	641	85.0	-595601.0	-19855.0	-723950.0
16	16	14	44	641	86.0	-634194.0	-19439.0	-723759.0
16	16	14	44	641	87.0	-666580.0	-16366.0	-723854.0
16	16	14	44	642	88.0	-696959.0	-13760.0	-723770.0
16	16	14	44	642	89.0	-735091.0	-11339.0	-723581.0
16	16	14	44	642	90.0	-785576.0	-9404.0	-723522.0
16	16	14	44	643	91.0	-834652.0	-8112.0	-723847.0
16	16	14	44	643	92.0	-876533.0	-7217.0	-723711.0
16	16	14	44	643	93.0	-896361.0	-6382.0	-723861.0
16	16	14	44	643	94.0	-876027.0	-5757.0	-723748.0
16	16	14	44	643	95.0	-807221.0	-4653.0	-723890.0
16	16	14	44	644	96.0	-681914.0	-3798.0	-723953.0
16	16	14	44	644	97.0	-513758.0	-3217.0	-724036.0
16	16	14	44	644	98.0	-306502.0	-3056.0	-724144.0
16	16	14	44	644	99.0	-80366.0	-2856.0	-724003.0
16	16	14	44	645	101.0	330302.0	-2317.0	-723907.0
16	16	14	44	667	102.0	497956.0	-3714.0	-724139.0
16	16	14	44	668	103.0	632594.0	-6249.0	-723960.0
16	16	14	44	668	104.0	750253.0	-8624.0	-724117.0
16	16	14	44	668	105.0	858387.0	-10317.0	-723961.0
16	16	14	44	668	106.0	962860.0	-11042.0	-724160.0
16	16	14	44	694	107.0	1047089.0	-11699.0	-723939.0
16	16	14	44	695	108.0	1081686.0	-12111.0	-724118.0
16	16	14	44	695	109.0	1054656.0	-9507.0	-723874.0
16	16	14	44	695	110.0	991190.0	-5611.0	-723990.0
16	16	14	44	696	111.0	895464.0	-3128.0	-723825.0
16	16	14	44	696	112.0	688973.0	-1606.0	-723963.0
16	16	14	44	696	113.0	142512.0	-69.0	-723705.0
16	16	14	44	696	114.0	-813658.0	930.0	-723649.0
16	16	14	44	697	115.0	-1948607.0	1356.0	-723370.0
16	16	14	44	697	116.0	-2932159.0	2066.0	-723328.0
16	16	14	44	697	117.0	-3553690.0	2802.0	-723206.0
16	16	14	44	698	118.0	-3715108.0	3369.0	-723231.0
16	16	14	44	698	119.0	-3442629.0	3996.0	-723356.0
16	16	14	44	698	120.0	-2880897.0	4585.0	-723316.0
16	16	14	44	698	121.0	-2127691.0	4799.0	-723455.0
16	16	14	44	699	123.0	-203800.0	5565.0	-723672.0
16	16	14	44	699	124.0	840125.0	4679.0	-723671.0
16	16	14	44	699	125.0	1745146.0	1735.0	-724107.0
16	16	14	44	700	126.0	2374361.0	-367.0	-723889.0
16	16	14	44	700	127.0	2695311.0	-1727.0	-724171.0
16	16	14	44	700	128.0	2727538.0	-2296.0	-723866.0
16	16	14	44	700	129.0	2416874.0	-2415.0	-724022.0
16	16	14	44	721	130.0	1692211.0	-2154.0	-723581.0
16	16	14	44	768	131.0	691564.0	-2308.0	-723894.0
16	16	14	44	781	132.0	-337717.0	-626.0	-723644.0
16	16	14	44	813	133.0	-1197347.0	2464.0	-723742.0
16	16	14	44	841	134.0	-1753906.0	3619.0	-723479.0
16	16	14	44	841	135.0	-1933162.0	4604.0	-723424.0
16	16	14	44	842	136.0	-1733507.0	5801.0	-723337.0
16	16	14	44	842	137.0	-1248895.0	6385.0	-723601.0
16	16	14	44	842	138.0	-610121.0	7017.0	-723474.0
16	16	14	44	842	139.0	65711.0	7644.0	-723952.0
16	16	14	44	842	140.0	676319.0	8146.0	-723753.0
16	16	14	44	843	141.0	1190927.0	8733.0	-724039.0
16	16	14	44	843	142.0	1605361.0	8970.0	-723842.0
16	16	14	44	843	143.0	1901575.0	9871.0	-723914.0
16	16	14	44	843	144.0	2059331.0	9999.0	-723714.0
16	16	14	44	844	146.0	1968473.0	10473.0	-723826.0
16	16	14	44	844	168.0	895120.0	9889.0	-724441.0
16	16	14	44	844	169.0	910838.0	9088.0	-724584.0
16	16	14	44	844	170.0	909987.0	6678.0	-724384.0
16	16	14	44	845	191.0	278671.0	14013.0	-725109.0
16	16	14	44	845	192.0	38478.0	13068.0	-725186.0
16	16	14	44	845	193.0	-200556.0	10804.0	-725081.0
16	16	14	44	845	194.0	-436592.0	9879.0	-725224.0
16	16	14	44	846	195.0	-667431.0	9919.0	-724977.0
16	16	14	44	870	196.0	-889001.0	10071.0	-725135.0
16	16	14	44	871	197.0	-1102923.0	11055.0	-724919.0
16	16	14	44	871	198.0	-1298660.0	12329.0	-725153.0
16	16	14	44	872	199.0	-1456565.0	16263.0	-724951.0
16	16	14	44	872	200.0	-1569278.0	20875.0	-725214.0
16	16	14	44	872	201.0	-1633577.0	24308.0	-725041.0
16	16	14	44	872	202.0	-1656654.0	27541.0	-725351.0
16	16	14	44	873	203.0	-1654062.0	30971.0	-725345.0
16	16	14	44	873	204.0	-1643844.0	34664.0	-725615.0
16	16	14	44	873	205.0	-1628467.0	38986.0	-725459.0
16	16	14	44	874	206.0	-1609601.0	42454.0	-725476.0
16	16	14	44	874	207.0	-1581950.0	45194.0	-725426.0
16	16	14	44	874	208.0	-1551082.0	48458.0	-725427.0
16	16	14	44	874	209.0	-1510058.0	50854.0	-725409.0
16	16	14	44	875	210.0	-1446161.0	53360.0	-725439.0
16	16	14	44	875	213.0	-1109139.0	63328.0	-725652.0
16	16	14	44	875	214.0	-934126.0	65117.0	-725367.0
16	16	14	44	876	215.0	-737409.0	64311.0	-725643.0
16	16	14	44	876	216.0	-526778.0	64163.0	-725407.0
16	16	14	44	876	217.0	-314554.0	64703.0	-725737.0
16	16	14	44	877	218.0	-104958.0	65325.0	-725659.0
16	16	14	44	877	219.0	100970.0	66030.0	-726147.0
16	16	14	44	902	220.0	278268.0	66869.0	-725944.0
16	16	14	44	920	221.0	416327.0	68462.0	-726282.0
16	16	14	44	920	222.0	518079.0	72769.0	-726054.0
16	16	14	44	920	223.0	582764.0	76334.0	-726430.0
16	16	14	44	921	224.0	604475.0	79363.0	-726219.0
16	16	14	44	921	225.0	589623.0	82089.0	-726399.0
16	16	14	44	922	226.0	550121.0	83456.0	-726159.0
16	16	14	44	922	227.0	495169.0	84634.0	-726427.0
16	16	14	44	922	228.0	438367.0	85258.0	-726251.0
16	16	14	44	923	229.0	383148.0	85493.0	-726509.0
16	16	14	44	923	230.0	328324.0	85567.0	-726515.0
16	16	14	44	923	231.0	272215.0	85401.0	-726697.0
16	16	14	44	924	232.0	201133.0	84984.0	-726755.0
16	16	14	44	924	233.0	97831.0	84396.0	-726646.0
16	16	14	44	924	234.0	-38791.0	83826.0	-726632.0
16	16	14	44	924	236.0	-439014.0	81415.0	-726776.0
16	16	14	44	925	237.0	-706828.0	78044.0	-726631.0
16	16	14	44	925	238.0	-1025461.0	73382.0	-726808.0
16	16	14	44	925	239.0	-1388220.0	69529.0	-726597.0
16	16	14	44	926	240.0	-1791197.0	65916.0	-726764.0
16	16	14	44	926	241.0	-2255964.0	62676.0	-726493.0
16	16	14	44	947	242.0	-2848792.0	59620.0	-726832.0
16	16	14	44	965	243.0	-3568182.0	57152.0	-726541.0
16	16	14	44	965	244.0	-4174326.0	57523.0	-726716.0
16	16	14	44	965	245.0	-4307942.0	57118.0	-726577.0
16	16	14	44	966	246.0	-4006703.0	56289.0	-726631.0
16	16	14	44	966	247.0	-3473690.0	54367.0	-726582.0
16	16	14	44	966	248.0	-2817327.0	51831.0	-726833.0
16	16	14	44	967	249.0	-2156475.0	49574.0	-726971.0
16	16	14	44	967	250.0	-1539564.0	47043.0	-726977.0
16	16	14	44	967	251.0	-960387.0	44441.0	-727075.0
16	16	14	44	968	252.0	-513074.0	41219.0	-727029.0
16	16	14	44	968	253.0	-219009.0	38435.0	-727087.0
16	16	14	44	968	254.0	-57999.0	35414.0	-727020.0
16	16	14	44	968	255.0	-64897.0	32824.0	-727374.0
16	16	14	44	969	0.0	-192516.0	30004.0	-727386.0
16	16	14	44	969	2.0	-574376.0	24678.0	-727378.0
16	16	14	44	969	3.0	-753236.0	20364.0	-727201.0
16	16	14	44	970	4.0	-865707.0	14104.0	-727209.0
16	16	14	44	970	5.0	-896445.0	8878.0	-727299.0
16	16	14	44	970	6.0	-854614.0	4291.0	-727297.0
16	16	14	44	971	7.0	-763503.0	291.0	-727537.0
16	16	14	44	971	8.0	-659274.0	-3345.0	-727367.0
16	16	14	44	991	9.0	-570226.0	-6316.0	-727564.0
16	16	14	45	7	10.0	-526369.0	-8460.0	-727365.0
16	16	14	45	8	11.0	-531388.0	-8360.0	-727631.0
16	16	14	45	8	12.0	-570272.0	-9308.0	-727466.0
16	16	14	45	8	13.0	-634583.0	-9937.0	-727551.0
16	16	14	45	9	14.0	-701781.0	-10859.0	-727255.0
16	16	14	45	9	15.0	-738367.0	-12030.0	-727289.0
16	16	14	45	9	16.0	-727555.0	-13326.0	-727037.0
16	16	14	45	10	17.0	-671448.0	-14458.0	-727236.0
16	16	14	45	10	18.0	-609190.0	-15489.0	-727054.0
16	16	14	45	10	19.0	-526377.0	-17099.0	-727062.0
16	16	14	45	10	20.0	-358501.0	-18485.0	-726902.0
16	16	14	45	11	21.0	-157098.0	-20134.0	-727026.0
16	16	14	45	11	22.0	24512.0	-21703.0	-727024.0
16	16	14	45	11	23.0	174565.0	-23349.0	-727126.0
16	16	14	45	12	25.0	385247.0	-25862.0	-727133.0
16	16	14	45	12	26.0	452850.0	-29603.0	-727322.0
16	16	14	45	12	27.0	497804.0	-33313.0	-727191.0
16	16	14	45	13	28.0	517939.0	-35963.0	-727371.0
16	16	14	45	13	29.0	526766.0	-38207.0	-727246.0
16	16	14	45	13	30.0	523234.0	-40457.0	-727551.0
16	16	14	45	37	31.0	502608.0	-42042.0	-727311.0
16	16	14	45	49	32.0	463839.0	-43039.0	-727621.0
16	16	14	45	49	33.0	395016.0	-41778.0	-727311.0
16	16	14	45	50	34.0	295158.0	-39894.0	-727458.0
16	16	14	45	50	35.0	169750.0	-39630.0	-727071.0
16	16	14	45	50	36.0	42382.0	-39364.0	-727281.0
16	16	14	45	51	37.0	-74456.0	-38716.0	-727030.0
16	16	14	45	51	38.0	-157822.0	-38315.0	-727212.0
16	16	14	45	52	39.0	-186567.0	-38111.0	-727076.0
16	16	14	45	52	40.0	-166319.0	-38286.0	-727198.0
16	16	14	45	52	41.0	-120653.0	-38621.0	-727091.0
16	16	14	45	53	42.0	-58217.0	-38919.0	-727332.0
16	16	14	45	53	43.0	23020.0	-39201.0	-727341.0
16	16	14	45	53	44.0	125615.0	-39856.0	-727347.0
16	16	14	45	53	45.0	255887.0	-39941.0	-727271.0
16	16	14	45	54	47.0	564960.0	-40102.0	-727097.0
16	16	14	45	54	48.0	719523.0	-40817.0	-727096.0
16	16	14	45	54	49.0	858725.0	-44102.0	-727336.0
16	16	14	45	54	50.0	989680.0	-46414.0	-727138.0
16	16	14	45	55	51.0	1121759.0	-47529.0	-727179.0
16	16	14	45	55	52.0	1252518.0	-48640.0	-726946.0
16	16	14	45	55	53.0	1383393.0	-49449.0	-727305.0
16	16	14	45	82	54.0	1502879.0	-49676.0	-727059.0
16	16	14	45	99	55.0	1607378.0	-48652.0	-727204.0
16	16	14	45	99	56.0	1702251.0	-45052.0	-726869.0
16	16	14	45	100	57.0	1794036.0	-41990.0	-727129.0
16	16	14	45	100	58.0	1900316.0	-39735.0	-726929.0
16	16	14	45	101	59.0	2007035.0	-37379.0	-727054.0
16	16	14	45	101	60.0	2103297.0	-35637.0	-726744.0
16	16	14	45	101	61.0	2184967.0	-33758.0	-726831.0
16	16	14	45	102	62.0	2250062.0	-32365.0	-726667.0
16	16	14	45	102	63.0	2294299.0	-30664.0	-726823.0
16	16	14	45	102	64.0	2326636.0	-29425.0	-726704.0
16	16	14	45	103	65.0	2337623.0	-28847.0	-726932.0
16	16	14	45	103	66.0	2324283.0	-27884.0	-726898.0
16	16	14	45	103	67.0	2292891.0	-27011.0	-726866.0
16	16	14	45	104	68.0	2251844.0	-25899.0	-726971.0
16	16	14	45	104	70.0	2105887.0	-23816.0	-727069.0
16	16	14	45	104	71.0	2004940.0	-25734.0	-726914.0
16	16	14	45	104	72.0	1883947.0	-27826.0	-726946.0
16	16	14	45	105	73.0	1742173.0	-29036.0	-726777.0
16	16	14	45	105	74.0	1581992.0	-29716.0	-727092.0
16	16	14	45	106	75.0	1406639.0	-30234.0	-726923.0
16	16	14	45	129	76.0	1222038.0	-29553.0	-727168.0
16	16	14	45	129	77.0	1034268.0	-28382.0	-726903.0
16	16	14	45	129	78.0	842149.0	-25106.0	-727186.0
16	16	14	45	150	79.0	651538.0	-21434.0	-726992.0
16	16	14	45	151	80.0	471924.0	-18312.0	-727079.0
16	16	14	45	151	81.0	316930.0	-15716.0	-726787.0
16	16	14	45	151	82.0	194554.0	-14291.0	-726944.0
16	16	14	45	152	83.0	102146.0	-12635.0	-726802.0
16	16	14	45	172	84.0	41061.0	-10837.0	-726878.0
16	16	14	45	173	85.0	21458.0	-8431.0	-726957.0
16	16	14	45	174	86.0	50226.0	-6706.0	-726932.0
16	16	14	45	174	87.0	114304.0	-5358.0	-727087.0
16	16	14	45	191	88.0	186905.0	-4029.0	-726952.0
16	16	14	45	191	89.0	264051.0	-3096.0	-727216.0
16	16	14	45	192	90.0	365224.0	-2816.0	-727081.0
16	16	14	45	192	92.0	588901.0	-1364.0	-727384.0
16	16	14	45	192	93.0	711704.0	-1973.0	-727590.0
16	16	14	45	192	94.0	840875.0	-5034.0	-727515.0
16	16	14	45	193	95.0	970006.0	-6502.0	-727680.0
16	16	14	45	193	96.0	1092593.0	-6003.0	-727440.0
16	16	14	45	193	97.0	1193575.0	-3786.0	-727690.0
16	16	14	45	193	98.0	1274996.0	-2176.0	-727431.0
16	16	14	45	194	99.0	1342543.0	-570.0	-727731.0
16	16	14	45	194	115.0	-443599.0	-116.0	-727644.0
16	16	14	45	194	116.0	-591109.0	-2770.0	-727843.0
16	16	14	45	194	117.0	-726536.0	-5597.0	-727621.0
16	16	14	45	194	118.0	-844846.0	-7732.0	-727986.0
16	16	14	45	195	119.0	-942299.0	-9472.0	-727774.0
16	16	14	45	195	120.0	-1014536.0	-10749.0	-727991.0
16	16	14	45	217	121.0	-1061832.0	-12179.0	-727779.0
16	16	14	45	217	122.0	-1067173.0	-12225.0	-727950.0
16	16	14	45	217	123.0	-1036309.0	-9513.0	-727804.0
16	16	14	45	233	124.0	-967804.0	-7886.0	-728052.0
16	16	14	45	233	125.0	-872363.0	-7391.0	-727895.0
16	16	14	45	233	126.0	-762889.0	-7135.0	-728083.0
16	16	14	45	233	127.0	-645265.0	-6652.0	-727990.0
16	16	14	45	234	128.0	-524546.0	-6370.0	-728031.0
16	16	14	45	234	129.0	-398172.0	-6289.0	-728039.0
16	16	14	45	234	130.0	-281727.0	-6729.0	-727861.0
16	16	14	45	234	131.0	-187261.0	-7207.0	-727779.0
16	16	14	45	234	132.0	-118944.0	-7969.0	-727698.0
16	16	14	45	235	133.0	-73459.0	-8234.0	-727705.0
16	16	14	45	235	134.0	-40569.0	-8519.0	-727849.0
16	16	14	45	235	135.0	-30974.0	-8386.0	-727707.0
16	16	14	45	235	137.0	-34236.0	-8712.0	-727393.0
16	16	14	45	235	138.0	-34377.0	-10283.0	-727691.0
16	16	14	45	236	139.0	-30791.0	-13827.0	-727539.0
16	16	14	45	236	140.0	-16737.0	-16515.0	-727719.0
16	16	14	45	236	141.0	18656.0	-18389.0	-727529.0
16	16	14	45	236	142.0	64286.0	-20245.0	-727595.0
16	16	14	45	264	143.0	120496.0	-21664.0	-727442.0
16	16	14	45	265	144.0	185283.0	-22197.0	-727393.0
16	16	14	45	265	145.0	265854.0	-21251.0	-727318.0
16	16	14	45	282	146.0	362619.0	-18795.0	-727314.0
16	16	14	45	282	147.0	472729.0	-16726.0	-727379.0
16	16	14	45	283	148.0	579400.0	-15282.0	-727213.0
16	16	14	45	283	149.0	676080.0	-14926.0	-727352.0
16	16	14	45	283	150.0	756283.0	-13497.0	-727261.0
16	16	14	45	283	151.0	817901.0	-12601.0	-727512.0
16	16	14	45	284	152.0	869961.0	-12294.0	-727296.0
16	16	14	45	284	153.0	899889.0	-11241.0	-727477.0
16	16	14	45	284	154.0	914264.0	-10746.0	-727329.0
16	16	14	45	284	155.0	908753.0	-10312.0	-727687.0
16	16	14	45	285	156.0	874571.0	-10382.0	-727503.0
16	16	14	45	285	157.0	811169.0	-10622.0	-727496.0
16	16	14	45	285	160.0	415732.0	-10923.0	-727455.0
16	16	14	45	286	161.0	238312.0	-13709.0	-727499.0
16	16	14	45	286	162.0	62279.0	-16063.0	-727402.0
16	16	14	45	286	163.0	-96136.0	-18074.0	-727413.0
16	16	14	45	287	164.0	-236749.0	-19369.0	-727460.0
16	16	14	45	287	165.0	-350019.0	-20414.0	-727294.0
16	16	14	45	308	166.0	-432111.0	-21138.0	-727305.0
16	16	14	45	309	167.0	-470424.0	-20827.0	-727170.0
16	16	14	45	331	168.0	-458747.0	-18327.0	-727379.0
16	16	14	45	331	169.0	-415874.0	-15982.0	-727202.0
16	16	14	45	332	170.0	-365227.0	-13971.0	-727491.0
16	16	14	45	332	171.0	-311172.0	-12501.0	-727374.0
16	16	14	45	332	172.0	-262106.0	-11084.0	-727708.0
16	16	14	45	332	173.0	-219179.0	-10316.0	-727419.0
16	16	14	45	333	174.0	-185857.0	-9609.0	-727704.0
16	16	14	45	333	175.0	-170292.0	-8720.0	-727344.0
16	16	14	45	333	176.0	-165735.0	-8571.0	-727600.0
16	16	14	45	333	177.0	-164516.0	-8604.0	-727339.0
16	16	14	45	333	178.0	-154137.0	-8322.0	-727532.0
16	16	14	45	334	179.0	-123745.0	-7501.0	-727249.0
16	16	14	45	334	180.0	-77088.0	-6692.0	-727165.0
16	16	14	45	334	182.0	66686.0	-6093.0	-727230.0
16	16	14	45	334	183.0	163122.0	-7250.0	-726908.0
16	16	14	45	335	184.0	263224.0	-9637.0	-727131.0
16	16	14	45	335	185.0	367118.0	-11958.0	-727008.0
16	16	14	45	335	186.0	472155.0	-13621.0	-727075.0
16	16	14	45	335	187.0	593983.0	-14664.0	-726933.0
16	16	14	45	352	188.0	750418.0	-15164.0	-727219.0
16	16	14	45	352	189.0	940058.0	-15226.0	-727176.0
16	16	14	45	353	190.0	1134459.0	-12899.0	-727312.0
16	16	14	45	353	191.0	1333801.0	-9026.0	-727356.0
16	16	14	45	371	192.0	1535273.0	-6599.0	-727348.0
16	16	14	45	372	193.0	1713136.0	-4859.0	-727416.0
16	16	14	45	372	194.0	1854306.0	-2845.0	-727312.0
16	16	14	45	372	195.0	1948451.0	-1631.0	-727446.0
16	16	14	45	372	196.0	1995416.0	-908.0	-727249.0
16	16	14	45	373	197.0	1985961.0	-197.0	-727516.0
16	16	14	45	373	198.0	1893963.0	764.0	-727346.0
16	16	14	45	373	199.0	1686620.0	1221.0	-727501.0
16	16	14	45	373	200.0	1376106.0	1411.0	-727304.0
16	16	14	45	374	201.0	1033073.0	1863.0	-727424.0
16	16	14	45	374	202.0	642398.0	2406.0	-727222.0
16	16	14	45	374	204.0	-907909.0	3321.0	-727186.0
16	16	14	45	374	205.0	-2137617.0	2836.0	-727417.0
16	16	14	45	375	206.0	-3241711.0	48.0	-727251.0
16	16	14	45	375	207.0	-3944271.0	-2595.0	-727172.0
16	16	14	45	375	208.0	-4150527.0	-4536.0	-727112.0
16	16	14	45	376	209.0	-3882329.0	-5831.0	-726968.0
16	16	14	45	376	210.0	-3264750.0	-6567.0	-726866.0
16	16	14	45	397	211.0	-2457697.0	-7087.0	-726824.0
16	16	14	45	398	212.0	-1523563.0	-7006.0	-726949.0
16	16	14	45	415	213.0	-457854.0	-4277.0	-727051.0
16	16	14	45	416	214.0	700216.0	-1567.0	-727489.0
16	16	14	45	416	215.0	1778177.0	1161.0	-727424.0
16	16	14	45	416	216.0	2555489.0	3314.0	-727785.0
16	16	14	45	416	217.0	2908570.0	5286.0	-727527.0
16	16	14	45	417	218.0	2843585.0	6903.0	-727840.0
16	16	14	45	417	219.0	2429206.0	7872.0	-727573.0
16	16	14	45	417	220.0	1735661.0	8666.0	-727831.0
16	16	14	45	418	221.0	818031.0	8899.0	-727446.0
16	16	14	45	418	222.0	-193866.0	9062.0	-727741.0
16	16	14	45	418	223.0	-1128643.0	9463.0	-727394.0
16	16	14	45	418	224.0	-1867899.0	9346.0	-727639.0
16	16	14	45	419	225.0	-2341678.0	9368.0	-727384.0
16	16	14	45	419	227.0	-2316039.0	9744.0	-727518.0
16	16	14	45	419	228.0	-1948451.0	7436.0	-727637.0
16	16	14	45	419	229.0	-1512865.0	4956.0	-727584.0
16	16	14	45	420	230.0	-1076088.0	3331.0	-727617.0
16	16	14	45	420	231.0	-660516.0	2017.0	-727661.0
16	16	14	45	420	232.0	-259809.0	1153.0	-727653.0
16	16	14	45	441	233.0	112214.0	888.0	-727851.0
16	16	14	45	442	234.0	427174.0	521.0	-727792.0
16	16	14	45	457	235.0	665569.0	2771.0	-728109.0
16	16	14	45	457	236.0	805512.0	5086.0	-727959.0
16	16	14	45	457	237.0	834610.0	6911.0	-728084.0
16	16	14	45	458	238.0	751339.0	8193.0	-727906.0
16	16	14	45	458	239.0	564636.0	9313.0	-728147.0
16	16	14	45	458	240.0	312222.0	9831.0	-727899.0
16	16	14	45	458	241.0	25189.0	10456.0	-728052.0
16	16	14	45	459	242.0	-269804.0	11106.0	-727831.0
16	16	14	45	459	243.0	-538085.0	11452.0	-727939.0
16	16	14	45	459	244.0	-740688.0	11143.0	-727752.0
16	16	14	45	459	245.0	-859717.0	11171.0	-727811.0
16	16	14	45	460	246.0	-876899.0	11789.0	-727746.0
16	16	14	45	460	247.0	-788527.0	12581.0	-727760.0
16	16	14	45	460	249.0	-377840.0	12562.0	-727732.0
16	16	14	45	460	250.0	-110097.0	11845.0	-727829.0
16	16	14	45	461	251.0	172320.0	8528.0	-727814.0
16	16	14	45	461	252.0	456074.0	6197.0	-727987.0
16	16	14	45	461	253.0	725246.0	4056.0	-727909.0
16	16	14	45	461	254.0	956199.0	2941.0	-728146.0
16	16	14	45	462	255.0	1158629.0	1723.0	-727879.0
16	16	14	45	487	0.0	1344510.0	822.0	-728041.0
16	16	14	45	499	1.0	1520408.0	624.0	-727737.0
16	16	14	45	499	2.0	1665749.0	3489.0	-728008.0
16	16	14	45	500	3.0	1767772.0	6331.0	-727633.0
16	16	14	45	500	4.0	1823963.0	8258.0	-727854.0
16	16	14	45	500	5.0	1837484.0	10242.0	-727566.0
16	16	14	45	500	6.0	1839261.0	11124.0	-727831.0
16	16	14	45	500	7.0	1824024.0	11723.0	-727530.0
16	16	14	45	501	8.0	1793425.0	12367.0	-727794.0
16	16	14	45	501	9.0	1757094.0	12957.0	-727579.0
16	16	14	45	501	10.0	1709270.0	13304.0	-727555.0
16	16	14	45	519	11.0	1655913.0	13526.0	-727417.0
16	16	14	45	520	12.0	1603446.0	13923.0	-727799.0
16	16	14	45	520	13.0	1546835.0	13984.0	-727607.0
16	16	14	45	520	14.0	1477578.0	13951.0	-727939.0
16	16	14	45	520	16.0	1303346.0	13789.0	-727997.0
16	16	14	45	521	17.0	1245155.0	11976.0	-727959.0
16	16	14	45	521	18.0	1201411.0	9288.0	-728074.0
16	16	14	45	521	19.0	1157838.0	7833.0	-727949.0
16	16	14	45	521	20.0	1103436.0	6606.0	-727914.0
16	16	14	45	522	21.0	1041366.0	5694.0	-727947.0
16	16	14	45	539	22.0	989708.0	5914.0	-727772.0
16	16	14	45	539	23.0	914774.0	6254.0	-727789.0
16	16	14	45	540	24.0	876633.0	8876.0	-727632.0
16	16	14	45	540	25.0	733231.0	11967.0	-727750.0
16	16	14	45	572	26.0	534801.0	14702.0	-727496.0
16	16	14	45	572	27.0	294338.0	17162.0	-727539.0
16	16	14	45	572	28.0	20424.0	19734.0	-727337.0
16	16	14	45	573	29.0	-275284.0	21939.0	-727521.0
16	16	14	45	573	30.0	-556362.0	24392.0	-727260.0
16	16	14	45	573	31.0	-815952.0	26594.0	-727289.0
16	16	14	45	573	32.0	-1035612.0	28926.0	-727049.0
16	16	14	45	574	33.0	-1208844.0	31363.0	-727205.0
16	16	14	45	574	34.0	-1328162.0	33826.0	-727003.0
16	16	14	45	574	35.0	-1426372.0	36859.0	-726971.0
16	16	14	45	574	36.0	-1500107.0	40133.0	-726789.0
16	16	14	45	575	38.0	-1613974.0	45124.0	-726793.0
16	16	14	45	590	39.0	-1669367.0	47013.0	-726717.0
16	16	14	45	590	40.0	-1711339.0	46846.0	-726716.0
16	16	14	45	590	41.0	-1750832.0	47445.0	-726646.0
16	16	14	45	591	42.0	-1774431.0	48234.0	-726779.0
16	16	14	45	591	43.0	-1805433.0	49572.0	-726732.0
16	16	14	45	591	44.0	-1825759.0	51606.0	-726883.0
16	16	14	45	591	45.0	-1844497.0	56051.0	-726694.0
16	16	14	45	592	46.0	-1840199.0	61087.0	-726794.0
16	16	14	45	592	47.0	-1829429.0	65972.0	-726535.0
16	16	14	45	592	48.0	-1798972.0	69915.0	-726741.0
16	16	14	45	592	49.0	-1772807.0	72974.0	-726432.0
16	16	14	45	592	50.0	-1750270.0	76300.0	-726649.0
16	16	14	45	593	51.0	-1756803.0	78653.0	-726221.0
16	16	14	45	593	52.0	-1764870.0	80779.0	-726322.0
16	16	14	45	593	53.0	-1785993.0	82809.0	-725907.0
16	16	14	45	593	61.0	-1779699.0	90479.0	-725981.0
16	16	14	45	594	62.0	-1731012.0	88191.0	-726254.0
16	16	14	45	594	63.0	-1649000.0	84511.0	-726029.0
16	16	14	45	594	64.0	-1570343.0	81928.0	-726334.0
16	16	14	45	595	65.0	-1479631.0	80286.0	-726237.0
16	16	14	45	595	66.0	-1380915.0	78121.0	-726322.0
16	16	14	45	621	67.0	-1274052.0	76191.0	-726197.0
16	16	14	45	633	68.0	-1160444.0	74396.0	-726251.0
16	16	14	45	633	69.0	-1071314.0	74808.0	-726290.0
16	16	14	45	634	70.0	-971274.0	75840.0	-726201.0
16	16	14	45	634	71.0	-892812.0	75843.0	-726215.0
16	16	14	45	634	72.0	-797021.0	76140.0	-726056.0
16	16	14	45	635	73.0	-704416.0	75379.0	-726036.0
16	16	14	45	635	74.0	-609109.0	73964.0	-725872.0
16	16	14	45	635	75.0	-512805.0	72503.0	-725923.0
16	16	14	45	635	76.0	-461426.0	70812.0	-725832.0
16	16	14	45	636	77.0	-439822.0	68496.0	-726312.0
16	16	14	45	636	78.0	-513357.0	66029.0	-726147.0
16	16	14	45	636	79.0	-751416.0	63113.0	-726216.0
16	16	14	45	636	80.0	-1171942.0	60233.0	-725950.0
16	16	14	45	637	81.0	-1568402.0	57794.0	-726190.0
16	16	14	45	637	83.0	-989138.0	51053.0	-726106.0
16	16	14	45	652	84.0	-361456.0	46858.0	-726051.0
16	16	14	45	652	85.0	306753.0	40947.0	-726066.0
16	16	14	45	653	86.0	915443.0	35746.0	-726053.0
16	16	14	45	653	87.0	1472937.0	31154.0	-726087.0
16	16	14	45	653	88.0	1979688.0	26849.0	-726237.0
16	16	14	45	654	89.0	2366544.0	22781.0	-726143.0
16	16	14	45	672	90.0	2636477.0	18743.0	-726340.0
16	16	14	45	672	91.0	2806688.0	16268.0	-726229.0
16	16	14	45	672	92.0	2817653.0	16334.0	-726492.0
16	16	14	45	673	93.0	2721769.0	15689.0	-726233.0
16	16	14	45	673	94.0	2566205.0	14036.0	-726526.0
16	16	14	45	673	95.0	2363817.0	12021.0	-726255.0
16	16	14	45	673	96.0	2175094.0	10231.0	-726586.0
16	16	14	45	673	97.0	2017514.0	7641.0	-726269.0
16	16	14	45	674	98.0	1916328.0	4859.0	-726605.0
16	16	14	45	674	99.0	1851452.0	2086.0	-726221.0
16	16	14	45	674	100.0	1798213.0	-722.0	-726349.0
16	16	14	45	675	101.0	1724956.0	-2964.0	-726194.0
16	16	14	45	675	102.0	1600376.0	-5506.0	-726409.0
16	16	14	45	675	103.0	1389554.0	-8089.0	-726297.0
16	16	14	45	676	104.0	1084684.0	-10180.0	-726659.0
16	16	14	45	676	106.0	521342.0	-16259.0	-726626.0
16	16	14	45	691	107.0	326348.0	-20193.0	-726392.0
16	16	14	45	691	108.0	238378.0	-24348.0	-726720.0
16	16	14	45	692	109.0	280428.0	-27950.0	-726457.0
16	16	14	45	692	110.0	466362.0	-31352.0	-726738.0
16	16	14	45	692	111.0	729807.0	-33953.0	-726579.0
16	16	14	45	711	112.0	1014729.0	-36011.0	-726852.0
16	16	14	45	733	113.0	1294816.0	-37591.0	-726693.0
16	16	14	45	733	114.0	1523398.0	-36625.0	-726859.0
16	16	14	45	734	115.0	1690074.0	-35517.0	-726754.0
16	16	14	45	734	116.0	1796420.0	-34521.0	-726624.0
16	16	14	45	734	117.0	1863207.0	-33847.0	-726351.0
16	16	14	45	735	118.0	1895408.0	-34279.0	-726325.0
16	16	14	45	735	119.0	1902253.0	-34680.0	-726322.0
16	16	14	45	735	120.0	1884544.0	-35211.0	-726263.0
16	16	14	45	736	121.0	1844278.0	-35698.0	-726384.0
16	16	14	45	736	122.0	1814012.0	-36001.0	-726330.0
16	16	14	45	736	123.0	1776560.0	-36283.0	-726526.0
16	16	14	45	736	124.0	1743268.0	-36822.0	-726352.0
16	16	14	45	737	125.0	1715513.0	-37489.0	-726505.0
16	16	14	45	737	126.0	1705468.0	-37939.0	-726315.0
16	16	14	45	737	128.0	1718940.0	-39137.0	-726343.0
16	16	14	45	737	129.0	1700558.0	-40655.0	-726517.0
16	16	14	45	738	130.0	1662008.0	-44218.0	-726259.0
16	16	14	45	738	131.0	1603395.0	-46464.0	-726245.0
16	16	14	45	738	132.0	1543954.0	-48622.0	-726033.0
16	16	14	45	738	133.0	1477808.0	-50591.0	-726327.0
16	16	14	45	738	134.0	1405703.0	-51986.0	-726317.0
16	16	14	45	802	135.0	1311428.0	-52920.0	-726335.0
16	16	14	45	802	136.0	1180166.0	-52507.0	-726268.0
16	16	14	45	803	137.0	1022693.0	-49647.0	-726276.0
16	16	14	45	803	138.0	826047.0	-47893.0	-726393.0
16	16	14	45	818	139.0	583993.0	-46506.0	-726337.0
16	16	14	45	819	140.0	310294.0	-45301.0	-726339.0
16	16	14	45	820	141.0	17825.0	-44264.0	-726249.0
16	16	14	45	820	142.0	-284616.0	-43381.0	-726427.0
16	16	14	45	821	143.0	-589727.0	-41489.0	-726112.0
16	16	14	45	821	144.0	-897111.0	-40939.0	-726254.0
16	16	14	45	822	145.0	-1174223.0	-40819.0	-726232.0
16	16	14	45	822	146.0	-1417601.0	-39946.0	-726248.0
16	16	14	45	822	147.0	-1610799.0	-39221.0	-726327.0
16	16	14	45	823	148.0	-1755897.0	-38916.0	-726406.0
16	16	14	45	823	149.0	-1860699.0	-37946.0	-726297.0
16	16	14	45	824	173.0	-379257.0	-15124.0	-726716.0
16	16	14	45	824	174.0	-390831.0	-15345.0	-726479.0
16	16	14	45	825	175.0	-391999.0	-17572.0	-726821.0
16	16	14	45	825	176.0	-376488.0	-19269.0	-726573.0
16	16	14	45	826	177.0	-346526.0	-20360.0	-726847.0
16	16	14	45	826	178.0	-312183.0	-20869.0	-726548.0
16	16	14	45	827	179.0	-274684.0	-21161.0	-726807.0
16	16	14	45	852	180.0	-239312.0	-20552.0	-726691.0
16	16	14	45	877	181.0	-219446.0	-19108.0	-726823.0
16	16	14	45	877	182.0	-217419.0	-15816.0	-726686.0
16	16	14	45	878	183.0	-229152.0	-13066.0	-726776.0
16	16	14	45	898	184.0	-242803.0	-10111.0	-726737.0
16	16	14	45	898	185.0	-253220.0	-7607.0	-726780.0
16	16	14	45	899	186.0	-253305.0	-5426.0	-726857.0
16	16	14	45	899	187.0	-244051.0	-3876.0	-726882.0
16	16	14	45	899	188.0	-233672.0	-3137.0	-727025.0
16	16	14	45	900	189.0	-223223.0	-2207.0	-726877.0
16	16	14	45	900	190.0	-218590.0	-1112.0	-727003.0
16	16	14	45	900	191.0	-209968.0	-735.0	-726782.0
16	16	14	45	917	192.0	-195439.0	-694.0	-726941.0
16	16	14	45	918	193.0	-163039.0	-993.0	-726686.0
16	16	14	45	918	194.0	-103257.0	-797.0	-726944.0
16	16	14	45	918	196.0	68552.0	-815.0	-726894.0
16	16	14	45	918	197.0	160419.0	-3358.0	-726614.0
16	16	14	45	919	198.0	238516.0	-4606.0	-726969.0
16	16	14	45	919	199.0	307562.0	-3329.0	-726796.0
16	16	14	45	919	218.0	99980.0	-8686.0	-727374.0
16	16	14	45	920	219.0	94781.0	-10150.0	-727607.0
16	16	14	45	920	220.0	106455.0	-13829.0	-727531.0
16	16	14	45	920	221.0	113598.0	-16466.0	-727574.0
16	16	14	45	920	222.0	128325.0	-18112.0	-727604.0
16	16	14	45	921	223.0	164684.0	-19732.0	-727531.0
16	16	14	45	921	224.0	199801.0	-20889.0	-727539.0
16	16	14	45	937	225.0	242502.0	-21530.0	-727444.0
16	16	14	45	937	226.0	287038.0	-20849.0	-727507.0
16	16	14	45	957	227.0	306570.0	-18520.0	-727291.0
16	16	14	45	957	228.0	345071.0	-16696.0	-727664.0
16	16	14	45	957	229.0	367818.0	-15866.0	-727401.0
16	16	14	45	958	230.0	415598.0	-15028.0	-727827.0
16	16	14	45	958	231.0	448102.0	-14163.0	-727784.0
16	16	14	45	958	232.0	499330.0	-13595.0	-728087.0
16	16	14	45	958	233.0	545119.0	-13364.0	-727890.0
16	16	14	45	959	234.0	602850.0	-13302.0	-728186.0
16	16	14	45	959	235.0	647084.0	-13174.0	-727906.0
16	16	14	45	959	236.0	697503.0	-13097.0	-728146.0
16	16	14	45	959	237.0	729974.0	-13172.0	-727877.0
16	16	14	45	960	238.0	770216.0	-13131.0	-728159.0
16	16	14	45	960	239.0	797187.0	-13032.0	-727924.0
16	16	14	45	960	241.0	805679.0	-13056.0	-727890.0
16	16	14	45	960	242.0	774525.0	-16470.0	-728071.0
16	16	14	45	961	243.0	714914.0	-19555.0	-727808.0
16	16	14	45	961	244.0	641453.0	-21434.0	-727872.0
16	16	14	45	961	245.0	543309.0	-22852.0	-727697.0
16	16	14	45	961	246.0	428108.0	-23655.0	-727701.0
16	16	14	45	983	247.0	298949.0	-24275.0	-727644.0
16	16	14	45	983	248.0	165924.0	-24197.0	-727737.0
16	16	14	45	984	249.0	23263.0	-21160.0	-728033.0
16	16	14	46	0	250.0	-117659.0	-18841.0	-727831.0
16	16	14	46	1	251.0	-255639.0	-17512.0	-727811.0
16	16	14	46	1	252.0	-366612.0	-15995.0	-727665.0
16	16	14	46	1	253.0	-459337.0	-14503.0	-727816.0
16	16	14	46	2	254.0	-510711.0	-13709.0	-727707.0
16	16	14	46	2	255.0	-538027.0	-13332.0	-727954.0
16	16	14	46	2	0.0	-532690.0	-12485.0	-727746.0
16	16	14	46	3	1.0	-513699.0	-11748.0	-728100.0
16	16	14	46	3	2.0	-467746.0	-11414.0	-727877.0
16	16	14	46	3	3.0	-403049.0	-11363.0	-728142.0
16	16	14	46	4	4.0	-317597.0	-10912.0	-727995.0
16	16	14	46	4	5.0	-227462.0	-10332.0	-728034.0
16	16	14	46	4	7.0	-19702.0	-8876.0	-727904.0
16	16	14	46	4	8.0	82354.0	-9786.0	-727817.0
16	16	14	46	5	9.0	163814.0	-12834.0	-727944.0
16	16	14	46	5	10.0	216379.0	-14825.0	-728011.0
16	16	14	46	6	11.0	246178.0	-16148.0	-727986.0
16	16	14	46	6	12.0	261935.0	-17041.0	-728035.0
16	16	14	46	27	13.0	272706.0	-17446.0	-727935.0
16	16	14	46	42	14.0	270580.0	-17221.0	-728097.0
16	16	14	46	43	15.0	255488.0	-15402.0	-727847.0
16	16	14	46	43	16.0	220866.0	-12544.0	-728010.0
16	16	14	46	43	17.0	186289.0	-10812.0	-728061.0
16	16	14	46	44	18.0	169544.0	-9073.0	-728071.0
16	16	14	46	44	19.0	177640.0	-7573.0	-728148.0
16	16	14	46	44	20.0	238793.0	-6292.0	-728210.0
16	16	14	46	44	21.0	353550.0	-5501.0	-728222.0
16	16	14	46	45	22.0	535854.0	-4609.0	-728402.0
16	16	14	46	45	23.0	763203.0	-3495.0	-728337.0
16	16	14	46	45	24.0	1017168.0	-2569.0	-728521.0
16	16	14	46	46	25.0	1265214.0	-1766.0	-728332.0
16	16	14	46	46	26.0	1516052.0	-1127.0	-728578.0
16	16	14	46	46	27.0	1750410.0	-586.0	-728377.0
16	16	14	46	47	30.0	2289814.0	661.0	-728524.0
16	16	14	46	47	31.0	2369160.0	-2486.0	-728337.0
16	16	14	46	48	32.0	2374006.0	-5136.0	-728514.0
16	16	14	46	48	33.0	2253872.0	-6819.0	-728256.0
16	16	14	46	48	34.0	2013920.0	-8166.0	-728293.0
16	16	14	46	48	35.0	1675271.0	-9286.0	-728062.0
16	16	14	46	71	36.0	1323148.0	-10161.0	-728152.0
16	16	14	46	87	37.0	950897.0	-9702.0	-728059.0
16	16	14	46	88	38.0	336565.0	-6314.0	-728160.0
16	16	14	46	88	39.0	-691229.0	-3519.0	-728112.0
16	16	14	46	88	40.0	-1904472.0	-1351.0	-727945.0
16	16	14	46	89	41.0	-2916994.0	793.0	-727982.0
16	16	14	46	89	42.0	-3480995.0	2478.0	-727744.0
16	16	14	46	89	43.0	-3556308.0	4024.0	-727894.0
16	16	14	46	90	44.0	-3198833.0	4929.0	-727706.0
16	16	14	46	90	45.0	-2529405.0	5402.0	-727848.0
16	16	14	46	90	46.0	-1747470.0	5750.0	-727779.0
16	16	14	46	90	47.0	-859503.0	5679.0	-728187.0
16	16	14	46	91	48.0	128395.0	6118.0	-728088.0
16	16	14	46	91	49.0	1190683.0	6499.0	-728521.0
16	16	14	46	91	50.0	2147862.0	7241.0	-728196.0
16	16	14	46	91	52.0	3175699.0	9265.0	-728353.0
16	16	14	46	92	53.0	3082601.0	7421.0	-728476.0
16	16	14	46	92	54.0	2688826.0	3946.0	-728224.0
16	16	14	46	92	55.0	2070011.0	1666.0	-728312.0
16	16	14	46	92	56.0	1248560.0	-19.0	-728115.0
16	16	14	46	93	57.0	303418.0	-1052.0	-728157.0
16	16	14	46	117	58.0	-587742.0	-1930.0	-728164.0
16	16	14	46	139	59.0	-1271246.0	-2477.0	-728396.0
16	16	14	46	139	60.0	-1690662.0	-441.0	-728064.0
16	16	14	46	140	61.0	-1801786.0	2430.0	-728362.0
16	16	14	46	140	62.0	-1631836.0	4651.0	-728209.0
16	16	14	46	140	63.0	-1293030.0	6136.0	-728488.0
16	16	14	46	140	64.0	-893430.0	7156.0	-728442.0
16	16	14	46	141	65.0	-472772.0	8684.0	-728519.0
16	16	14	46	141	66.0	-41482.0	9306.0	-728523.0
16	16	14	46	141	67.0	412491.0	10149.0	-728390.0
16	16	14	46	142	68.0	858975.0	10816.0	-728324.0
16	16	14	46	142	69.0	1256300.0	10859.0	-728239.0
16	16	14	46	142	70.0	1526744.0	11154.0	-728243.0
16	16	14	46	142	71.0	1664334.0	11529.0	-728102.0
16	16	14	46	143	72.0	1648879.0	12064.0	-728290.0
16	16	14	46	143	74.0	1223076.0	12861.0	-728278.0
16	16	14	46	143	75.0	875033.0	12107.0	-728135.0
16	16	14	46	143	76.0	493238.0	9558.0	-728439.0
16	16	14	46	144	77.0	118084.0	7252.0	-728180.0
16	16	14	46	144	78.0	-197806.0	5813.0	-728228.0
16	16	14	46	144	79.0	-415292.0	4749.0	-728017.0
16	16	14	46	145	80.0	-505547.0	4130.0	-728181.0
16	16	14	46	209	81.0	-479379.0	3573.0	-727999.0
16	16	14	46	209	82.0	-342838.0	3333.0	-728201.0
16	16	14	46	210	83.0	-133547.0	5571.0	-728113.0
16	16	14	46	211	84.0	110398.0	7628.0	-728272.0
16	16	14	46	211	85.0	364748.0	8523.0	-728352.0
16	16	14	46	212	86.0	610103.0	9993.0	-728353.0
16	16	14	46	221	87.0	825409.0	10823.0	-728457.0
16	16	14	46	222	88.0	1008165.0	11594.0	-728371.0
16	16	14	46	223	89.0	1167995.0	12533.0	-728452.0
16	16	14	46	223	90.0	1294219.0	12859.0	-728282.0
16	16	14	46	224	91.0	1385908.0	13288.0	-728504.0
16	16	14	46	224	92.0	1449823.0	13564.0	-728276.0
16	16	14	46	225	93.0	1477319.0	13539.0	-728544.0
16	16	14	46	225	94.0	1462132.0	13978.0	-728224.0
16	16	14	46	226	95.0	1410932.0	13713.0	-728432.0
16	16	14	46	226	119.0	-286687.0	22750.0	-727481.0
16	16	14	46	227	120.0	-347848.0	23346.0	-727517.0
16	16	14	46	227	121.0	-409800.0	22348.0	-727273.0
16	16	14	46	227	122.0	-474892.0	22004.0	-727443.0
16	16	14	46	228	123.0	-537678.0	22509.0	-727304.0
16	16	14	46	228	124.0	-606125.0	23544.0	-727499.0
16	16	14	46	255	125.0	-670110.0	25241.0	-727258.0
16	16	14	46	255	126.0	-722599.0	27341.0	-727568.0
16	16	14	46	256	127.0	-763365.0	30246.0	-727472.0
16	16	14	46	256	128.0	-791264.0	35508.0	-727646.0
16	16	14	46	256	129.0	-826691.0	40431.0	-727478.0
16	16	14	46	283	130.0	-880245.0	45319.0	-727521.0
16	16	14	46	283	131.0	-971452.0	49774.0	-727369.0
16	16	14	46	283	132.0	-1089224.0	54199.0	-727332.0
16	16	14	46	284	133.0	-1225751.0	58332.0	-727415.0
16	16	14	46	284	134.0	-1378173.0	61668.0	-727288.0
16	16	14	46	284	135.0	-1528275.0	65184.0	-727486.0
16	16	14	46	284	136.0	-1676531.0	69095.0	-727229.0
16	16	14	46	311	137.0	-1811157.0	71944.0	-727523.0
16	16	14	46	311	138.0	-1928406.0	74710.0	-727232.0
16	16	14	46	311	139.0	-2020346.0	76971.0	-727529.0
16	16	14	46	312	140.0	-2073022.0	79765.0	-727301.0
16	16	14	46	312	142.0	-2112906.0	84809.0	-727392.0
16	16	14	46	312	143.0	-2110307.0	84818.0	-727554.0
16	16	14	46	313	144.0	-2101806.0	83209.0	-727237.0
16	16	14	46	313	145.0	-2077523.0	82342.0	-727492.0
16	16	14	46	313	146.0	-2037350.0	82779.0	-727235.0
16	16	14	46	314	147.0	-1972642.0	86666.0	-727434.0
16	16	14	46	314	148.0	-1893481.0	89159.0	-727124.0
16	16	14	46	314	149.0	-1796263.0	90826.0	-727501.0
16	16	14	46	314	150.0	-1695627.0	92599.0	-727317.0
16	16	14	46	315	151.0	-1588677.0	93598.0	-727656.0
16	16	14	46	315	152.0	-1472847.0	94348.0	-727479.0
16	16	14	46	315	164.0	81989.0	78847.0	-727934.0
16	16	14	46	316	165.0	187028.0	75819.0	-727713.0
16	16	14	46	316	166.0	252084.0	69657.0	-727887.0
16	16	14	46	316	167.0	258498.0	63952.0	-727685.0
16	16	14	46	317	168.0	188113.0	59124.0	-728041.0
16	16	14	46	317	169.0	21703.0	54978.0	-727898.0
16	16	14	46	338	170.0	-293049.0	50496.0	-728041.0
16	16	14	46	365	171.0	-837014.0	46610.0	-727842.0
16	16	14	46	366	172.0	-1537329.0	43869.0	-727944.0
16	16	14	46	366	173.0	-2010516.0	43459.0	-727719.0
16	16	14	46	367	174.0	-1947012.0	41946.0	-727806.0
16	16	14	46	367	175.0	-1556704.0	40569.0	-727788.0
16	16	14	46	367	176.0	-996989.0	38525.0	-727772.0
16	16	14	46	367	177.0	-446871.0	36328.0	-727668.0
16	16	14	46	368	178.0	9613.0	33573.0	-727680.0
16	16	14	46	368	179.0	377749.0	30509.0	-727734.0
16	16	14	46	368	180.0	618779.0	27808.0	-727578.0
16	16	14	46	369	181.0	750916.0	24889.0	-727877.0
16	16	14	46	369	182.0	856754.0	22267.0	-727577.0
16	16	14	46	369	183.0	816161.0	19253.0	-727777.0
16	16	14	46	370	184.0	646499.0	16185.0	-727769.0
16	16	14	46	370	185.0	399508.0	13354.0	-727844.0
16	16	14	46	370	187.0	-165156.0	6189.0	-727786.0
16	16	14	46	370	188.0	-389159.0	1338.0	-727746.0
16	16	14	46	371	189.0	-544418.0	-3873.0	-727763.0
16	16	14	46	393	190.0	-611342.0	-8288.0	-727699.0
16	16	14	46	394	191.0	-626697.0	-11785.0	-727857.0
16	16	14	46	394	192.0	-602243.0	-15472.0	-727712.0
16	16	14	46	394	193.0	-588802.0	-19088.0	-727909.0
16	16	14	46	395	194.0	-630174.0	-21337.0	-727745.0
16	16	14	46	395	195.0	-710681.0	-21221.0	-727944.0
16	16	14	46	395	196.0	-776625.0	-21641.0	-727679.0
16	16	14	46	395	197.0	-812670.0	-23052.0	-728009.0
16	16	14	46	396	198.0	-801881.0	-23961.0	-727812.0
16	16	14	46	396	199.0	-694119.0	-24006.0	-727982.0
16	16	14	46	396	200.0	-497030.0	-24631.0	-727802.0
16	16	14	46	419	201.0	-230421.0	-25736.0	-727829.0
16	16	14	46	420	202.0	60038.0	-26654.0	-727664.0
16	16	14	46	420	203.0	375048.0	-27659.0	-727855.0
16	16	14	46	420	204.0	657365.0	-28690.0	-727741.0
16	16	14	46	421	205.0	888423.0	-29916.0	-727880.0
16	16	14	46	421	210.0	875205.0	-34912.0	-727871.0
16	16	14	46	421	211.0	720287.0	-38956.0	-727471.0
16	16	14	46	422	212.0	555641.0	-41862.0	-727427.0
16	16	14	46	422	213.0	379312.0	-44228.0	-727305.0
16	16	14	46	422	214.0	207835.0	-46015.0	-727656.0
16	16	14	46	422	215.0	45814.0	-47875.0	-727412.0
16	16	14	46	446	216.0	-66320.0	-49554.0	-727598.0
16	16	14	46	446	217.0	-135124.0	-49395.0	-727345.0
16	16	14	46	447	218.0	-137552.0	-46681.0	-727728.0
16	16	14	46	447	219.0	-88974.0	-44658.0	-727521.0
16	16	14	46	447	220.0	-711.0	-43674.0	-727756.0
16	16	14	46	447	221.0	99098.0	-42847.0	-727403.0
16	16	14	46	448	222.0	213354.0	-42812.0	-727614.0
16	16	14	46	448	223.0	323899.0	-42044.0	-727359.0
16	16	14	46	448	224.0	447050.0	-42352.0	-727507.0
16	16	14	46	448	225.0	576866.0	-42139.0	-727392.0
16	16	14	46	449	226.0	707757.0	-41484.0	-727564.0
16	16	14	46	449	227.0	835050.0	-41366.0	-727339.0
16	16	14	46	449	228.0	952597.0	-41430.0	-727453.0
16	16	14	46	450	229.0	1046584.0	-41494.0	-727343.0
16	16	14	46	450	230.0	1101689.0	-41375.0	-727565.0
16	16	14	46	450	232.0	1101652.0	-41197.0	-727689.0
16	16	14	46	450	233.0	1069396.0	-43564.0	-727448.0
16	16	14	46	451	234.0	1011138.0	-46017.0	-727722.0
16	16	14	46	451	235.0	940919.0	-47801.0	-727549.0
16	16	14	46	451	236.0	848133.0	-49252.0	-727599.0
16	16	14	46	452	237.0	749293.0	-49729.0	-727322.0
16	16	14	46	477	238.0	661599.0	-49715.0	-727600.0
16	16	14	46	499	239.0	590928.0	-48783.0	-727394.0
16	16	14	46	500	240.0	539381.0	-46123.0	-727664.0
16	16	14	46	500	241.0	498814.0	-43281.0	-727459.0
16	16	14	46	500	242.0	479035.0	-40588.0	-727667.0
16	16	14	46	501	243.0	470609.0	-38754.0	-727381.0
16	16	14	46	501	244.0	473524.0	-36782.0	-727331.0
16	16	14	46	501	245.0	467509.0	-35002.0	-727069.0
16	16	14	46	502	246.0	458559.0	-33462.0	-727075.0
16	16	14	46	502	247.0	441843.0	-31719.0	-726922.0
16	16	14	46	502	248.0	422806.0	-30486.0	-727025.0
16	16	14	46	502	249.0	400573.0	-29318.0	-726921.0
16	16	14	46	503	250.0	381321.0	-28029.0	-726897.0
16	16	14	46	503	251.0	367818.0	-26771.0	-726991.0
16	16	14	46	503	252.0	371245.0	-25652.0	-727044.0
16	16	14	46	504	254.0	391706.0	-24031.0	-727084.0
16	16	14	46	504	255.0	405264.0	-24261.0	-727221.0
16	16	14	46	504	0.0	405956.0	-26712.0	-727068.0
16	16	14	46	505	1.0	396886.0	-27939.0	-727285.0
16	16	14	46	505	2.0	373029.0	-28338.0	-727025.0
16	16	14	46	505	3.0	350355.0	-28377.0	-727299.0
16	16	14	46	506	4.0	336523.0	-28400.0	-727019.0
16	16	14	46	526	5.0	333151.0	-28041.0	-727353.0
16	16	14	46	526	6.0	336741.0	-26229.0	-727019.0
16	16	14	46	526	7.0	325011.0	-22531.0	-727267.0
16	16	14	46	527	8.0	314471.0	-19441.0	-727136.0
16	16	14	46	527	9.0	292291.0	-16949.0	-727219.0
16	16	14	46	527	10.0	284425.0	-14761.0	-727066.0
16	16	14	46	527	11.0	267934.0	-13121.0	-727147.0
16	16	14	46	528	12.0	278678.0	-11169.0	-727082.0
16	16	14	46	551	13.0	294849.0	-9791.0	-727093.0
16	16	14	46	552	14.0	328815.0	-8459.0	-726956.0
16	16	14	46	552	15.0	342839.0	-7369.0	-727211.0
16	16	14	46	552	16.0	363121.0	-5863.0	-726917.0
16	16	14	46	552	17.0	391304.0	-5780.0	-727156.0
16	16	14	46	553	18.0	436506.0	-5564.0	-726794.0
16	16	14	46	553	19.0	503341.0	-4984.0	-726847.0
16	16	14	46	553	21.0	657144.0	-5177.0	-726835.0
16	16	14	46	554	22.0	726334.0	-7976.0	-726813.0
16	16	14	46	554	23.0	800751.0	-10387.0	-726811.0
16	16	14	46	554	24.0	851353.0	-11707.0	-726694.0
16	16	14	46	554	25.0	903056.0	-13054.0	-726743.0
16	16	14	46	555	26.0	928211.0	-14039.0	-726849.0
16	16	14	46	613	27.0	952526.0	-14806.0	-726766.0
16	16	14	46	613	28.0	983325.0	-15138.0	-727068.0
16	16	14	46	658	29.0	1026321.0	-12376.0	-726961.0
16	16	14	46	658	30.0	1078349.0	-9854.0	-727123.0
16	16	14	46	658	31.0	1110234.0	-7664.0	-726914.0
16	16	14	46	659	32.0	1138563.0	-6164.0	-727152.0
16	16	14	46	659	33.0	1143199.0	-5300.0	-726959.0
16	16	14	46	659	34.0	1142019.0	-4517.0	-727042.0
16	16	14	46	671	35.0	1122688.0	-4027.0	-726772.0
16	16	14	46	672	36.0	1082949.0	-3837.0	-726986.0
16	16	14	46	673	37.0	1042136.0	-4480.0	-726869.0
16	16	14	46	673	38.0	995881.0	-4435.0	-726925.0
16	16	14	46	674	39.0	961469.0	-4507.0	-726837.0
16	16	14	46	674	40.0	932715.0	-4778.0	-726896.0
16	16	14	46	675	41.0	921266.0	-5237.0	-726852.0
16	16	14	46	714	66.0	71661.0	-17497.0	-727762.0
16	16	14	46	714	67.0	-39644.0	-20400.0	-727620.0
16	16	14	46	715	68.0	-150961.0	-20512.0	-727729.0
16	16	14	46	716	88.0	-74926.0	-17372.0	-727884.0
16	16	14	46	716	89.0	-43234.0	-18669.0	-728126.0
16	16	14	46	716	90.0	13721.0	-21044.0	-727807.0
16	16	14	46	717	91.0	87585.0	-22534.0	-728033.0
16	16	14	46	717	92.0	202116.0	-23760.0	-727732.0
16	16	14	46	718	93.0	334576.0	-23237.0	-728011.0
16	16	14	46	718	94.0	493633.0	-20233.0	-727714.0
16	16	14	46	719	95.0	638536.0	-17823.0	-727873.0
16	16	14	46	719	96.0	782773.0	-16435.0	-727784.0
16	16	14	46	719	97.0	896029.0	-15276.0	-728139.0
16	16	14	46	720	98.0	1008449.0	-13764.0	-727846.0
16	16	14	46	720	99.0	1095997.0	-12824.0	-728237.0
16	16	14	46	744	111.0	1342533.0	-6836.0	-728224.0
16	16	14	46	744	112.0	1292735.0	-9502.0	-728331.0
16	16	14	46	745	113.0	1244178.0	-12192.0	-728109.0
16	16	14	46	745	114.0	1221143.0	-13632.0	-728305.0
16	16	14	46	745	115.0	1223563.0	-14724.0	-728106.0
16	16	14	46	746	116.0	1260070.0	-15540.0	-728329.0
16	16	14	46	771	117.0	1296384.0	-16131.0	-728137.0
16	16	14	46	771	118.0	1344558.0	-15413.0	-728179.0
16	16	14	46	772	119.0	1381760.0	-12011.0	-728007.0
16	16	14	46	772	120.0	1440578.0	-8680.0	-727979.0
16	16	14	46	772	121.0	1481754.0	-6402.0	-727804.0
16	16	14	46	773	122.0	1509329.0	-4513.0	-727880.0
16	16	14	46	773	123.0	1486196.0	-2561.0	-727816.0
16	16	14	46	773	124.0	1440234.0	-1047.0	-727819.0
16	16	14	46	798	125.0	1318811.0	-467.0	-727757.0
16	16	14	46	799	126.0	1131144.0	461.0	-727636.0
16	16	14	46	837	127.0	842546.0	1411.0	-727553.0
16	16	14	46	929	128.0	528980.0	1902.0	-727456.0
16	16	14	46	930	129.0	204978.0	2247.0	-727571.0
16	16	14	46	941	130.0	-212665.0	2502.0	-727276.0
16	16	14	46	942	133.0	-3148302.0	3933.0	-727117.0
16	16	14	46	943	134.0	-4093747.0	2193.0	-726621.0
16	16	14	46	943	135.0	-4555824.0	-489.0	-726706.0
16	16	14	46	944	136.0	-4514606.0	-2744.0	-726297.0
16	16	14	46	945	137.0	-4029008.0	-2992.0	-726496.0
16	16	14	46	945	138.0	-3285784.0	-229.0	-726384.0
16	16	14	46	946	139.0	-2424208.0	1784.0	-726499.0
16	16	14	46	947	140.0	-1507004.0	2460.0	-726582.0
16	16	14	46	947	141.0	-519716.0	3414.0	-726736.0
16	16	14	46	948	142.0	452239.0	4484.0	-726713.0
16	16	14	46	948	156.0	-2440563.0	10973.0	-726229.0
16	16	14	46	949	178.0	284445.0	9677.0	-726054.0
16	16	14	46	984	223.0	-1302028.0	48358.0	-725791.0
16	16	14	46	984	224.0	-1304364.0	49794.0	-726075.0
16	16	14	46	985	225.0	-1279111.0	49961.0	-725831.0
16	16	14	46	985	226.0	-1263794.0	51324.0	-725990.0
16	16	14	46	986	227.0	-1226414.0	53264.0	-725772.0
16	16	14	46	986	228.0	-1205326.0	55098.0	-725876.0
16	16	14	46	987	229.0	-1212964.0	57183.0	-725813.0
16	16	14	46	987	230.0	-1228154.0	59953.0	-725997.0
16	16	14	46	987	231.0	-1237851.0	65698.0	-726091.0
16	16	14	46	987	232.0	-1266772.0	71335.0	-726137.0
16	16	14	46	988	233.0	-1338727.0	75571.0	-726269.0
16	16	14	46	988	234.0	-1429556.0	78961.0	-726161.0
16	16	14	47	18	235.0	-1545464.0	82503.0	-726295.0
16	16	14	47	44	236.0	-1668045.0	85491.0	-726205.0
16	16	14	47	44	237.0	-1773472.0	88464.0	-726354.0
16	16	14	47	45	238.0	-1859228.0	90293.0	-726176.0
16	16	14	47	45	239.0	-1902796.0	92033.0	-726448.0
16	16	14	47	46	240.0	-1911692.0	94289.0	-726243.0
16	16	14	47	46	241.0	-1867015.0	95906.0	-726461.0
16	16	14	47	46	242.0	-1757612.0	97346.0	-726267.0
16	16	14	47	46	243.0	-1595565.0	98938.0	-726415.0
16	16	14	47	47	245.0	-1184960.0	98956.0	-726270.0
16	16	14	47	47	246.0	-956329.0	98345.0	-726151.0
16	16	14	47	47	247.0	-702084.0	95067.0	-726238.0
16	16	14	47	47	248.0	-443238.0	92262.0	-726186.0
16	16	14	47	47	249.0	-195477.0	92398.0	-726114.0
16	16	14	47	48	250.0	18771.0	92952.0	-726079.0
16	16	14	47	48	12.0	-1158759.0	47435.0	-726147.0
16	16	14	47	48	13.0	-593489.0	41894.0	-726144.0
16	16	14	47	48	14.0	-61323.0	36068.0	-726474.0
16	16	14	47	49	15.0	394473.0	30671.0	-726444.0
16	16	14	47	49	16.0	786041.0	25946.0	-726756.0
16	16	14	47	49	17.0	1040375.0	21577.0	-726534.0
16	16	14	47	74	18.0	1215938.0	17386.0	-726715.0
16	16	14	47	74	19.0	1344993.0	13705.0	-726383.0
16	16	14	47	74	20.0	1318507.0	12853.0	-726647.0
16	16	14	47	75	21.0	1126908.0	12129.0	-726403.0
16	16	14	47	75	22.0	787381.0	10428.0	-726610.0
16	16	14	47	75	23.0	350821.0	8991.0	-726348.0
16	16	14	47	76	24.0	-98768.0	7514.0	-726619.0
16	16	14	47	76	25.0	-508489.0	5184.0	-726445.0
16	16	14	47	76	26.0	-841492.0	2634.0	-726526.0
16	16	14	47	77	27.0	-1062674.0	367.0	-726379.0
16	16	14	47	77	28.0	-1178639.0	-1752.0	-726273.0
16	16	14	47	77	29.0	-1270937.0	-3671.0	-725957.0
16	16	14	47	77	30.0	-1387376.0	-6113.0	-725915.0
16	16	14	47	78	31.0	-1557415.0	-8685.0	-725827.0
16	16	14	47	78	32.0	-1763986.0	-10872.0	-725836.0
16	16	14	47	78	34.0	-1861164.0	-14814.0	-725665.0
16	16	14	47	79	35.0	-1771553.0	-17816.0	-725633.0
16	16	14	47	79	36.0	-1576722.0	-22816.0	-725586.0
16	16	14	47	79	37.0	-1220694.0	-26486.0	-725866.0
16	16	14	47	79	38.0	-700387.0	-29439.0	-725757.0
16	16	14	47	104	39.0	-41274.0	-31982.0	-725999.0
16	16	14	47	104	40.0	613866.0	-33964.0	-725882.0
16	16	14	47	131	41.0	1216029.0	-35794.0	-726121.0
16	16	14	47	132	42.0	1654913.0	-36538.0	-725919.0
16	16	14	47	132	43.0	1893877.0	-34618.0	-726197.0
16	16	14	47	133	44.0	2019649.0	-33594.0	-725976.0
16	16	14	47	133	45.0	2072109.0	-33712.0	-726199.0
16	16	14	47	134	46.0	2016931.0	-33125.0	-725943.0
16	16	14	47	134	47.0	1886206.0	-33330.0	-726197.0
16	16	14	47	134	48.0	1740939.0	-33558.0	-725998.0
16	16	14	47	135	49.0	1538138.0	-33823.0	-726148.0
16	16	14	47	135	50.0	1231664.0	-34577.0	-725943.0
16	16	14	47	136	51.0	240107.0	-35049.0	-725866.0
16	16	14	47	136	52.0	-3144359.0	-35842.0	-725537.0
16	16	14	47	137	53.0	-5484761.0	-35425.0	-725212.0
16	16	14	47	137	54.0	-6340462.0	-35497.0	-725345.0
16	16	14	47	138	55.0	-6228225.0	-35124.0	-725113.0
16	16	14	47	138	57.0	-2525623.0	-36209.0	-725766.0
16	16	14	47	139	58.0	286431.0	-39656.0	-726014.0
16	16	14	47	139	59.0	3019113.0	-44060.0	-726259.0
16	16	14	47	140	60.0	5272841.0	-47556.0	-726524.0
16	16	14	47	140	61.0	6819996.0	-50106.0	-726422.0
16	16	14	47	141	62.0	7538790.0	-51629.0	-726749.0
16	16	14	47	162	63.0	7428455.0	-52526.0	-726499.0
16	16	14	47	163	64.0	6613669.0	-52721.0	-726544.0
16	16	14	47	164	65.0	5287878.0	-49836.0	-726159.0
16	16	14	47	164	66.0	3667918.0	-46456.0	-726216.0
16	16	14	47	165	67.0	1982563.0	-44762.0	-725822.0
16	16	14	47	166	68.0	434800.0	-44152.0	-726012.0
16	16	14	47	167	69.0	-823487.0	-43124.0	-725642.0
16	16	14	47	167	70.0	-1709697.0	-41953.0	-725628.0
16	16	14	47	168	71.0	-2232317.0	-41343.0	-725289.0
16	16	14	47	169	72.0	-2425463.0	-40879.0	-725399.0
16	16	14	47	169	73.0	-2339361.0	-40104.0	-725190.0
16	16	14	47	170	74.0	-2076918.0	-39720.0	-725572.0
16	16	14	47	170	75.0	-1731903.0	-39417.0	-725603.0
16	16	14	47	171	76.0	-1395276.0	-39229.0	-725786.0
16	16	14	47	171	77.0	-1117004.0	-38783.0	-725712.0
16	16	14	47	172	79.0	-858173.0	-36638.0	-725957.0
16	16	14	47	173	80.0	-860040.0	-36824.0	-725947.0
16	16	14	47	173	81.0	-933997.0	-39221.0	-726008.0
16	16	14	47	174	82.0	-1068102.0	-40652.0	-725855.0
16	16	14	47	174	83.0	-1275239.0	-41664.0	-726001.0
16	16	14	47	175	84.0	-1559322.0	-41786.0	-725766.0
16	16	14	47	176	85.0	-1894759.0	-41896.0	-725909.0
16	16	14	47	197	86.0	-2255424.0	-41556.0	-725704.0
16	16	14	47	219	87.0	-2607897.0	-39866.0	-726018.0
16	16	14	47	220	88.0	-2912915.0	-35662.0	-725781.0
16	16	14	47	220	89.0	-3149949.0	-32061.0	-726112.0
16	16	14	47	220	90.0	-3305421.0	-28888.0	-725858.0
16	16	14	47	220	91.0	-3358264.0	-26639.0	-726125.0
16	16	14	47	221	92.0	-3310425.0	-24589.0	-725924.0
16	16	14	47	221	93.0	-3167666.0	-22264.0	-726197.0
16	16	14	47	221	94.0	-2960409.0	-21352.0	-726014.0
16	16	14	47	221	95.0	-2708994.0	-20744.0	-726121.0
16	16	14	47	222	96.0	-2441656.0	-19539.0	-725947.0
16	16	14	47	222	97.0	-2186501.0	-18171.0	-725923.0
16	16	14	47	222	98.0	-1971880.0	-17141.0	-725904.0
16	16	14	47	222	99.0	-1809493.0	-16662.0	-725806.0
16	16	14	47	250	100.0	-1697794.0	-15682.0	-725827.0
16	16	14	47	250	102.0	-1589749.0	-14318.0	-725783.0
16	16	14	47	250	109.0	-794078.0	-9327.0	-725527.0
16	16	14	47	251	110.0	-628558.0	-9801.0	-725779.0
16	16	14	47	251	111.0	-505962.0	-12874.0	-725518.0
16	16	14	47	251	112.0	-388536.0	-15127.0	-725652.0
16	16	14	47	251	113.0	-256061.0	-16572.0	-725487.0
16	16	14	47	252	114.0	-151002.0	-17961.0	-725704.0
16	16	14	47	252	115.0	-26736.0	-18918.0	-725535.0
16	16	14	47	252	116.0	125509.0	-18177.0	-725817.0
16	16	14	47	252	117.0	247069.0	-15552.0	-725784.0
16	16	14	47	253	118.0	331896.0	-15506.0	-725824.0
16	16	14	47	253	119.0	380241.0	-15559.0	-725795.0
16	16	14	47	253	120.0	401492.0	-12778.0	-725802.0
16	16	14	47	253	121.0	375579.0	-11200.0	-725919.0
16	16	14	47	254	122.0	270324.0	-9812.0	-725721.0
16	16	14	47	254	123.0	144098.0	-8650.0	-725869.0
16	16	14	47	254	124.0	-35799.0	-7617.0	-725709.0
16	16	14	47	255	125.0	-194240.0	-8294.0	-725887.0
16	16	14	47	277	126.0	-321885.0	-10867.0	-725714.0
16	16	14	47	277	127.0	-437760.0	-12419.0	-726047.0
16	16	14	47	278	128.0	-505535.0	-11729.0	-725789.0
16	16	14	47	278	129.0	-528060.0	-10004.0	-726051.0
16	16	14	47	278	130.0	-499028.0	-9654.0	-725761.0
16	16	14	47	278	131.0	-407702.0	-8684.0	-726047.0
16	16	14	47	279	132.0	-263769.0	-8579.0	-725836.0
16	16	14	47	279	133.0	-69512.0	-10716.0	-726262.0
16	16	14	47	279	134.0	152925.0	-13707.0	-726191.0
16	16	14	47	279	135.0	375824.0	-14326.0	-726377.0
16	16	14	47	280	136.0	576575.0	-12491.0	-726304.0
16	16	14	47	280	137.0	726837.0	-11471.0	-726372.0
16	16	14	47	280	138.0	833626.0	-10925.0	-726489.0
16	16	14	47	280	139.0	893884.0	-10283.0	-726391.0
16	16	14	47	281	140.0	916796.0	-11489.0	-726470.0
16	16	14	47	302	141.0	900626.0	-15507.0	-726657.0
16	16	14	47	325	142.0	865621.0	-17467.0	-726547.0
16	16	14	47	326	143.0	835076.0	-16022.0	-726701.0
16	16	14	47	326	144.0	808726.0	-15026.0	-726679.0
16	16	14	47	326	145.0	778953.0	-14602.0	-726610.0
16	16	14	47	326	146.0	745325.0	-14697.0	-726577.0
16	16	14	47	327	147.0	704354.0	-14134.0	-726465.0
16	16	14	47	327	148.0	650960.0	-14073.0	-726541.0
16	16	14	47	327	149.0	587707.0	-14342.0	-726314.0
16	16	14	47	327	150.0	531263.0	-14698.0	-726406.0
16	16	14	47	328	151.0	491328.0	-14706.0	-726212.0
16	16	14	47	328	152.0	476378.0	-14346.0	-726358.0
16	16	14	47	328	153.0	479590.0	-14837.0	-726103.0
16	16	14	47	328	154.0	494959.0	-15319.0	-726396.0
16	16	14	47	329	155.0	518030.0	-16972.0	-726249.0
16	16	14	47	329	156.0	535916.0	-20731.0	-726404.0
16	16	14	47	329	157.0	545674.0	-23028.0	-726206.0
16	16	14	47	329	158.0	559919.0	-25150.0	-726456.0
16	16	14	47	330	159.0	557214.0	-26969.0	-726301.0
16	16	14	47	330	160.0	483948.0	-27987.0	-726440.0
16	16	14	47	330	161.0	335884.0	-27598.0	-726319.0
16	16	14	47	349	162.0	140869.0	-25241.0	-726319.0
16	16	14	47	350	163.0	-41726.0	-25061.0	-726138.0
16	16	14	47	350	164.0	-194113.0	-23181.0	-726221.0
16	16	14	47	350	165.0	-298477.0	-21446.0	-726226.0
16	16	14	47	350	166.0	-349753.0	-20291.0	-726134.0
16	16	14	47	351	167.0	-362008.0	-19450.0	-726082.0
16	16	14	47	351	168.0	-373104.0	-19205.0	-725906.0
16	16	14	47	351	169.0	-381156.0	-18884.0	-726052.0
16	16	14	47	351	170.0	-382492.0	-19760.0	-725859.0
16	16	14	47	352	171.0	-365801.0	-22566.0	-726024.0
16	16	14	47	352	172.0	-316232.0	-24517.0	-725806.0
16	16	14	47	352	173.0	-253187.0	-25488.0	-725989.0
16	16	14	47	352	174.0	-201027.0	-23351.0	-725748.0
16	16	14	47	353	175.0	-152188.0	-20978.0	-725978.0
16	16	14	47	353	176.0	-115296.0	-19017.0	-725686.0
16	16	14	47	353	177.0	-108066.0	-18873.0	-725859.0
16	16	14	47	373	178.0	-131607.0	-20794.0	-725501.0
16	16	14	47	374	179.0	-159112.0	-21914.0	-725633.0
16	16	14	47	374	180.0	-185639.0	-20333.0	-725363.0
16	16	14	47	374	181.0	-220182.0	-19201.0	-725450.0
16	16	14	47	374	182.0	-252719.0	-17839.0	-725206.0
16	16	14	47	375	183.0	-269464.0	-16881.0	-725313.0
16	16	14	47	375	184.0	-263617.0	-15664.0	-725207.0
16	16	14	47	375	185.0	-224624.0	-15999.0	-725159.0
16	16	14	47	397	186.0	-162760.0	-18912.0	-725307.0
16	16	14	47	397	187.0	-97283.0	-20802.0	-725769.0
16	16	14	47	397	188.0	-31447.0	-19872.0	-725682.0
16	16	14	47	397	189.0	31532.0	-17716.0	-725832.0
16	16	14	47	398	190.0	104863.0	-16194.0	-725716.0
16	16	14	47	398	191.0	190304.0	-14852.0	-725836.0
16	16	14	47	398	192.0	255197.0	-13747.0	-725884.0
16	16	14	47	398	193.0	291308.0	-15225.0	-725848.0
16	16	14	47	399	194.0	309371.0	-17611.0	-725871.0
16	16	14	47	399	195.0	332595.0	-16880.0	-725771.0
16	16	14	47	399	196.0	353058.0	-14156.0	-726082.0
16	16	14	47	399	197.0	373196.0	-12427.0	-725872.0
16	16	14	47	400	198.0	398043.0	-11522.0	-726154.0
16	16	14	47	400	199.0	412059.0	-10325.0	-725920.0
16	16	14	47	400	200.0	412699.0	-10434.0	-726036.0
16	16	14	47	419	201.0	391822.0	-12087.0	-725814.0
16	16	14	47	420	202.0	362405.0	-13129.0	-726169.0
16	16	14	47	420	203.0	342306.0	-12532.0	-726059.0
16	16	14	47	420	204.0	345103.0	-9922.0	-726269.0
16	16	14	47	421	205.0	362479.0	-7930.0	-726149.0
16	16	14	47	421	206.0	395809.0	-6602.0	-726273.0
16	16	14	47	421	207.0	447118.0	-6292.0	-726156.0
16	16	14	47	443	208.0	509252.0	-8166.0	-726146.0
16	16	14	47	443	209.0	576516.0	-9985.0	-726057.0
16	16	14	47	444	210.0	660736.0	-8041.0	-726001.0
16	16	14	47	444	211.0	785683.0	-6231.0	-725996.0
16	16	14	47	444	212.0	953878.0	-4981.0	-725872.0
16	16	14	47	444	213.0	1145545.0	-4287.0	-725933.0
16	16	14	47	444	214.0	1332824.0	-3302.0	-725751.0
16	16	14	47	445	215.0	1480673.0	-3533.0	-725882.0
16	16	14	47	445	216.0	1589314.0	-6284.0	-725668.0
16	16	14	47	445	217.0	1684184.0	-7726.0	-725986.0
16	16	14	47	445	218.0	1783136.0	-5647.0	-725724.0
16	16	14	47	446	219.0	1891889.0	-3037.0	-726009.0
16	16	14	47	446	220.0	2005219.0	-1662.0	-725719.0
16	16	14	47	446	221.0	2081942.0	-398.0	-725937.0
16	16	14	47	446	222.0	2102191.0	568.0	-725648.0
16	16	14	47	467	223.0	2051866.0	-1508.0	-725967.0
16	16	14	47	467	224.0	1883524.0	-3879.0	-725677.0
16	16	14	47	467	225.0	1599960.0	-3128.0	-725858.0
16	16	14	47	467	226.0	1262706.0	-721.0	-725661.0
16	16	14	47	468	227.0	883857.0	1066.0	-725737.0
16	16	14	47	468	228.0	330443.0	2108.0	-725516.0
16	16	14	47	468	229.0	-594394.0	3242.0	-725326.0
16	16	14	47	469	230.0	-1841027.0	2250.0	-725207.0
16	16	14	47	489	231.0	-3053436.0	-839.0	-725217.0
16	16	14	47	490	232.0	-3858529.0	-2190.0	-724983.0
16	16	14	47	490	233.0	-4131422.0	-140.0	-725220.0
16	16	14	47	490	234.0	-3903177.0	1883.0	-724956.0
16	16	14	47	490	235.0	-3307446.0	3952.0	-725208.0
16	16	14	47	491	236.0	-2570603.0	4743.0	-725112.0
16	16	14	47	491	237.0	-1814969.0	5242.0	-725464.0
16	16	14	47	491	238.0	-1059777.0	3245.0	-725325.0
16	16	14	47	491	239.0	-301721.0	1407.0	-725641.0
16	16	14	47	492	240.0	380933.0	2186.0	-725662.0
16	16	14	47	492	241.0	874925.0	4478.0	-725877.0
16	16	14	47	492	242.0	1066869.0	5996.0	-725961.0
16	16	14	47	492	243.0	908133.0	7136.0	-725949.0
16	16	14	47	492	244.0	535676.0	7461.0	-726057.0
16	16	14	47	493	245.0	39425.0	6906.0	-725870.0
16	16	14	47	512	246.0	-537801.0	3529.0	-725908.0
16	16	14	47	513	247.0	-1177422.0	2620.0	-725704.0
16	16	14	47	513	248.0	-1827326.0	3651.0	-725694.0
16	16	14	47	513	249.0	-2380002.0	5426.0	-725407.0
16	16	14	47	513	250.0	-2708222.0	6814.0	-725597.0
16	16	14	47	514	251.0	-2731626.0	8268.0	-725462.0
16	16	14	47	514	252.0	-2470846.0	8380.0	-725706.0
16	16	14	47	536	253.0	-2047267.0	6019.0	-725547.0
16	16	14	47	536	254.0	-1573350.0	3933.0	-725852.0
16	16	14	47	536	255.0	-1096274.0	5113.0	-725746.0
16	16	14	47	537	0.0	-605211.0	6577.0	-726091.0
16	16	14	47	537	1.0	-67537.0	7141.0	-726064.0
16	16	14	47	537	2.0	504168.0	8414.0	-726076.0
16	16	14	47	537	3.0	1057860.0	9263.0	-725983.0
16	16	14	47	538	4.0	1522779.0	8389.0	-725899.0
16	16	14	47	538	5.0	1850189.0	5366.0	-725939.0
16	16	14	47	538	6.0	2030369.0	3812.0	-725791.0
16	16	14	47	538	7.0	2064109.0	5928.0	-725962.0
16	16	14	47	539	8.0	2003613.0	7889.0	-725771.0
16	16	14	47	539	9.0	1849389.0	8798.0	-726037.0
16	16	14	47	539	10.0	1617446.0	10218.0	-725819.0
16	16	14	47	540	11.0	1341176.0	10250.0	-726104.0
16	16	14	47	559	12.0	1062949.0	7872.0	-725739.0
16	16	14	47	559	13.0	794879.0	5363.0	-726011.0
16	16	14	47	560	14.0	540355.0	6113.0	-725882.0
16	16	14	47	560	15.0	325737.0	7588.0	-726132.0
16	16	14	47	560	16.0	166225.0	8930.0	-725836.0
16	16	14	47	561	17.0	68332.0	9655.0	-726161.0
16	16	14	47	561	18.0	14163.0	10268.0	-725872.0
16	16	14	47	561	19.0	-23712.0	9048.0	-725927.0
16	16	14	47	561	20.0	-39192.0	6411.0	-725552.0
16	16	14	47	562	21.0	-27067.0	5210.0	-725972.0
16	16	14	47	562	22.0	6583.0	6691.0	-725790.0
16	16	14	47	562	23.0	59348.0	8195.0	-725966.0
16	16	14	47	582	24.0	123182.0	8982.0	-725676.0
16	16	14	47	583	25.0	178599.0	9614.0	-725843.0
16	16	14	47	583	26.0	218226.0	9454.0	-725696.0
16	16	14	47	583	27.0	242006.0	7108.0	-725849.0
16	16	14	47	583	28.0	257683.0	5089.0	-725766.0
16	16	14	47	584	29.0	268045.0	4716.0	-725816.0
16	16	14	47	584	30.0	261611.0	6828.0	-725723.0
16	16	14	47	584	31.0	248923.0	8621.0	-725692.0
16	16	14	47	584	32.0	220910.0	9625.0	-725645.0
16	16	14	47	585	33.0	186569.0	9661.0	-725622.0
16	16	14	47	585	34.0	154660.0	8695.0	-725764.0
16	16	14	47	605	35.0	139461.0	7054.0	-725634.0
16	16	14	47	606	36.0	146109.0	6298.0	-725776.0
16	16	14	47	606	37.0	193681.0	7698.0	-725564.0
16	16	14	47	606	38.0	268727.0	8958.0	-725589.0
16	16	14	47	607	39.0	371697.0	10007.0	-725314.0
16	16	14	47	607	40.0	489125.0	11148.0	-725332.0
16	16	14	47	607	41.0	614625.0	11629.0	-725046.0
16	16	14	47	607	42.0	719801.0	9274.0	-725113.0
16	16	14	47	608	43.0	787411.0	8644.0	-724907.0
16	16	14	47	608	44.0	781914.0	10292.0	-725078.0
16	16	14	47	608	45.0	702123.0	11978.0	-724916.0
16	16	14	47	608	46.0	568071.0	13709.0	-725029.0
16	16	14	47	630	47.0	364513.0	14635.0	-724769.0
16	16	14	47	631	48.0	103503.0	15673.0	-724787.0
16	16	14	47	631	49.0	-183753.0	14851.0	-724574.0
16	16	14	47	631	50.0	-488154.0	12519.0	-724626.0
16	16	14	47	631	51.0	-815591.0	11851.0	-724581.0
16	16	14	47	632	52.0	-1166401.0	12341.0	-724746.0
16	16	14	47	632	53.0	-1526164.0	15655.0	-724954.0
16	16	14	47	632	54.0	-1892247.0	19326.0	-724836.0
16	16	14	47	632	55.0	-2244470.0	23798.0	-725058.0
16	16	14	47	633	56.0	-2562166.0	26809.0	-724791.0
16	16	14	47	633	57.0	-2848454.0	26885.0	-725029.0
16	16	14	47	633	58.0	-3117042.0	28372.0	-724761.0
16	16	14	47	655	59.0	-3363182.0	32687.0	-725106.0
16	16	14	47	656	60.0	-3580634.0	36845.0	-724787.0
16	16	14	47	656	61.0	-3795551.0	40477.0	-725062.0
16	16	14	47	656	62.0	-3984519.0	45010.0	-724918.0
16	16	14	47	656	63.0	-4113271.0	49426.0	-724968.0
16	16	14	47	657	64.0	-4183731.0	50761.0	-724592.0
16	16	14	47	657	65.0	-4222341.0	50763.0	-724754.0
16	16	14	47	657	66.0	-4270717.0	52195.0	-724480.0
16	16	14	47	657	67.0	-4282136.0	56503.0	-724889.0
16	16	14	47	658	68.0	-4282052.0	61063.0	-724599.0
16	16	14	47	658	69.0	-4306475.0	65600.0	-724736.0
16	16	14	47	658	70.0	-4285071.0	69788.0	-724444.0
16	16	14	47	658	71.0	-4226336.0	73354.0	-724879.0
16	16	14	47	679	72.0	-4127794.0	73819.0	-724713.0
16	16	14	47	679	73.0	-4014238.0	74562.0	-724843.0
16	16	14	47	679	74.0	-3893787.0	78965.0	-724732.0
16	16	14	47	680	75.0	-3704066.0	83898.0	-724859.0
16	16	14	47	680	76.0	-3480324.0	87718.0	-724847.0
16	16	14	47	680	77.0	-3245979.0	90973.0	-724999.0
16	16	14	47	680	78.0	-2984264.0	93489.0	-724986.0
16	16	14	47	681	79.0	-2690626.0	93691.0	-724952.0
16	16	14	47	681	80.0	-2402588.0	92764.0	-724942.0
16	16	14	47	681	81.0	-2154464.0	93209.0	-724906.0
16	16	14	47	681	82.0	-1877142.0	95986.0	-724981.0
16	16	14	47	682	83.0	-1617972.0	99157.0	-724739.0
16	16	14	47	701	84.0	-1444852.0	101426.0	-724838.0
16	16	14	47	702	85.0	-1333354.0	103191.0	-724751.0
16	16	14	47	702	86.0	-1222129.0	104373.0	-725069.0
16	16	14	47	702	87.0	-1203101.0	102453.0	-724907.0
16	16	14	47	725	88.0	-1224984.0	100345.0	-725086.0
16	16	14	47	726	89.0	-1285036.0	101165.0	-724829.0
16	16	14	47	726	90.0	-1400460.0	102657.0	-724941.0
16	16	14	47	726	91.0	-1498289.0	102998.0	-724765.0
16	16	14	47	727	92.0	-1639094.0	102678.0	-725061.0
16	16	14	47	727	93.0	-2306849.0	102093.0	-724882.0
16	16	14	47	727	94.0	-3156927.0	100152.0	-725056.0
16	16	14	47	727	95.0	-3140635.0	99183.0	-724967.0
16	16	14	47	728	96.0	-3066317.0	98288.0	-724906.0
16	16	14	47	728	97.0	-2807023.0	96181.0	-724857.0
16	16	14	47	728	98.0	-2400825.0	94644.0	-724888.0
16	16	14	47	728	99.0	-1971610.0	92688.0	-724919.0
16	16	14	47	729	100.0	-1562437.0	90178.0	-724867.0
16	16	14	47	729	101.0	-1333317.0	86617.0	-725037.0
16	16	14	47	729	102.0	-1226855.0	80494.0	-724775.0
16	16	14	47	730	103.0	-1136214.0	75344.0	-724804.0
16	16	14	47	730	104.0	-1062018.0	70431.0	-724536.0
16	16	14	47	730	105.0	-1122769.0	66496.0	-724804.0
16	16	14	47	730	106.0	-1506898.0	63131.0	-724494.0
16	16	14	47	731	107.0	-2101027.0	60652.0	-724757.0
16	16	14	47	749	108.0	-2585391.0	58250.0	-724419.0
16	16	14	47	750	109.0	-2712260.0	53930.0	-724486.0
16	16	14	47	750	110.0	-2568942.0	50483.0	-724090.0
16	16	14	47	750	111.0	-2363567.0	48466.0	-724242.0
16	16	14	47	751	112.0	-2179256.0	45977.0	-723924.0
16	16	14	47	751	113.0	-2120916.0	43141.0	-724083.0
16	16	14	47	751	114.0	-2195071.0	40096.0	-723707.0
16	16	14	47	752	115.0	-2376964.0	37053.0	-724069.0
16	16	14	47	752	116.0	-2605356.0	33455.0	-723921.0
16	16	14	47	752	117.0	-2770221.0	27069.0	-724130.0
16	16	14	47	773	118.0	-2974677.0	21538.0	-724049.0
16	16	14	47	773	119.0	-3195419.0	16828.0	-724219.0
16	16	14	47	773	120.0	-3344422.0	15448.0	-724157.0
16	16	14	47	773	121.0	-3536879.0	14021.0	-724072.0
16	16	14	47	774	122.0	-3716617.0	11488.0	-724066.0
16	16	14	47	774	123.0	-3818875.0	8743.0	-724030.0
16	16	14	47	774	124.0	-3899579.0	4176.0	-724140.0
16	16	14	47	774	125.0	-3872073.0	-1579.0	-723999.0
16	16	14	47	775	126.0	-3817499.0	-3721.0	-724231.0
16	16	14	47	775	127.0	-3601301.0	-4582.0	-724192.0
16	16	14	47	775	128.0	-3360699.0	-6331.0	-724396.0
16	16	14	47	776	129.0	-3112280.0	-8101.0	-724270.0
16	16	14	47	776	130.0	-2888613.0	-10052.0	-724687.0
16	16	14	47	776	131.0	-2637469.0	-12934.0	-724508.0
16	16	14	47	777	132.0	-2335974.0	-18079.0	-724657.0
16	16	14	47	795	133.0	-2026996.0	-23000.0	-724500.0
16	16	14	47	795	134.0	-1659998.0	-25802.0	-724615.0
16	16	14	47	795	135.0	-1212069.0	-25469.0	-724493.0
16	16	14	47	796	136.0	-715439.0	-25852.0	-724571.0
16	16	14	47	796	137.0	-220442.0	-26450.0	-724486.0
16	16	14	47	796	138.0	229366.0	-26691.0	-724696.0
16	16	14	47	816	139.0	632204.0	-29817.0	-724779.0
16	16	14	47	816	140.0	1104842.0	-33184.0	-724967.0
16	16	14	47	816	141.0	1406651.0	-33732.0	-725133.0
16	16	14	47	816	142.0	1403538.0	-33532.0	-725151.0
16	16	14	47	817	143.0	1474713.0	-33644.0	-725355.0
16	16	14	47	817	144.0	1516938.0	-33741.0	-725159.0
16	16	14	47	817	145.0	1380324.0	-34220.0	-725363.0
16	16	14	47	837	146.0	1129376.0	-35799.0	-725084.0
16	16	14	47	837	147.0	923210.0	-37124.0	-725272.0
16	16	14	47	838	148.0	539128.0	-38397.0	-724899.0
16	16	14	47	838	149.0	157771.0	-39544.0	-725097.0
16	16	14	47	838	150.0	-447703.0	-39856.0	-724691.0
16	16	14	47	838	151.0	-1109151.0	-40639.0	-724878.0
16	16	14	47	839	152.0	-1553636.0	-41404.0	-724491.0
16	16	14	47	839	153.0	-1899043.0	-42325.0	-724576.0
16	16	14	47	839	154.0	-2054340.0	-45334.0	-724462.0
16	16	14	47	840	155.0	-2546426.0	-48907.0	-724569.0
16	16	14	47	840	156.0	-3066846.0	-51527.0	-724411.0
16	16	14	47	840	157.0	-3041682.0	-53719.0	-724711.0
16	16	14	47	840	158.0	-2680712.0	-55129.0	-724483.0
16	16	14	47	841	159.0	-3097161.0	-56419.0	-724813.0
16	16	14	47	841	160.0	-3501317.0	-55324.0	-724534.0
16	16	14	47	858	161.0	-3309041.0	-54016.0	-724832.0
16	16	14	47	859	162.0	-3316534.0	-54607.0	-724542.0
16	16	14	47	859	163.0	-3547103.0	-53032.0	-724875.0
16	16	14	47	859	164.0	-3072962.0	-51547.0	-724831.0
16	16	14	47	860	165.0	-2312538.0	-51002.0	-725138.0
16	16	14	47	860	166.0	-2447966.0	-50182.0	-725054.0
16	16	14	47	860	167.0	-2532316.0	-49628.0	-725137.0
16	16	14	47	860	168.0	-2634851.0	-48987.0	-725014.0
16	16	14	47	861	169.0	-2816339.0	-50517.0	-724965.0
16	16	14	47	861	170.0	-2029231.0	-53106.0	-725030.0
16	16	14	47	861	171.0	-1241317.0	-54407.0	-725158.0
16	16	14	47	861	172.0	-1264817.0	-52219.0	-725225.0
16	16	14	47	862	173.0	-1555076.0	-49482.0	-725067.0
16	16	14	47	880	174.0	-1241524.0	-48967.0	-725162.0
16	16	14	47	880	175.0	-857971.0	-47917.0	-725023.0
16	16	14	47	881	176.0	-505270.0	-46799.0	-725158.0
16	16	14	47	881	177.0	-541601.0	-48660.0	-724880.0
16	16	14	47	881	178.0	-462966.0	-49341.0	-724952.0
16	16	14	47	881	179.0	-43789.0	-47396.0	-724666.0
16	16	14	47	882	180.0	536217.0	-44940.0	-724789.0
16	16	14	47	882	181.0	629448.0	-42852.0	-724593.0
16	16	14	47	882	182.0	159926.0	-41167.0	-724743.0
16	16	14	47	882	183.0	199766.0	-39849.0	-724538.0
16	16	14	47	883	184.0	705807.0	-40234.0	-724777.0
16	16	14	47	901	185.0	658889.0	-41372.0	-724672.0
16	16	14	47	901	186.0	420674.0	-40976.0	-724863.0
16	16	14	47	901	187.0	439057.0	-38609.0	-724828.0
16	16	14	47	902	188.0	865191.0	-35642.0	-725003.0
16	16	14	47	902	189.0	576359.0	-33221.0	-724929.0
16	16	14	47	902	190.0	378361.0	-31947.0	-724964.0
16	16	14	47	903	191.0	709843.0	-30874.0	-725042.0
16	16	14	47	922	192.0	778778.0	-32201.0	-724901.0
16	16	14	47	922	193.0	365218.0	-32517.0	-724787.0
16	16	14	47	922	194.0	518301.0	-30081.0	-724557.0
16	16	14	47	923	195.0	611569.0	-27012.0	-724640.0
16	16	14	47	923	196.0	755559.0	-25098.0	-724668.0
16	16	14	47	923	197.0	1029856.0	-23427.0	-724825.0
16	16	14	47	924	198.0	1409567.0	-21419.0	-725074.0
16	16	14	47	924	199.0	1372994.0	-19591.0	-725149.0
16	16	14	47	924	200.0	1281518.0	-18393.0	-725086.0
16	16	14	47	943	201.0	1925082.0	-17364.0	-725110.0
16	16	14	47	943	202.0	2146410.0	-15921.0	-724994.0
16	16	14	47	943	203.0	2155331.0	-15089.0	-725107.0
16	16	14	47	944	204.0	2823427.0	-13592.0	-725097.0
16	16	14	47	944	205.0	3551113.0	-11926.0	-725330.0
16	16	14	47	944	206.0	3759901.0	-12464.0	-725239.0
16	16	14	47	945	207.0	4222489.0	-15958.0	-725587.0
16	16	14	47	945	208.0	4931440.0	-18237.0	-725397.0
16	16	14	47	945	209.0	5527779.0	-20407.0	-725526.0
16	16	14	47	945	210.0	5854004.0	-21701.0	-725242.0
16	16	14	47	946	211.0	6590784.0	-22294.0	-725624.0
16	16	14	47	946	212.0	7313033.0	-21461.0	-725549.0
16	16	14	47	963	213.0	7764843.0	-18395.0	-725773.0
16	16	14	47	964	214.0	8296319.0	-17158.0	-725735.0
16	16	14	47	964	215.0	8388607.0	-14856.0	-725879.0
16	16	14	47	965	216.0	8388607.0	-12360.0	-725881.0
16	16	14	47	965	217.0	8388607.0	-9754.0	-726116.0
16	16	14	47	965	218.0	8388607.0	-8495.0	-726122.0
16	16	14	47	966	219.0	8388607.0	-7891.0	-726219.0
16	16	14	47	966	220.0	8388607.0	-6936.0	-726193.0
16	16	14	47	966	221.0	8388607.0	-7609.0	-726204.0
16	16	14	47	966	222.0	8388607.0	-10675.0	-726429.0
16	16	14	47	967	223.0	8388607.0	-12299.0	-726271.0
16	16	14	47	967	224.0	8388607.0	-12864.0	-726401.0
16	16	14	47	967	225.0	8388607.0	-10686.0	-726229.0
16	16	14	47	968	226.0	8388607.0	-8517.0	-726507.0
16	16	14	47	984	227.0	8388607.0	-7437.0	-726286.0
16	16	14	47	985	228.0	8388607.0	-7690.0	-726649.0
16	16	14	47	985	229.0	8388607.0	-11066.0	-726321.0
16	16	14	47	985	230.0	7793121.0	-13877.0	-726440.0
16	16	14	47	986	231.0	7037669.0	-12956.0	-726360.0
16	16	14	47	986	232.0	6287108.0	-11922.0	-726391.0
16	16	14	47	986	233.0	5545588.0	-11359.0	-726343.0
16	16	14	47	986	234.0	4846736.0	-10447.0	-726544.0
16	16	14	47	987	235.0	4184156.0	-9676.0	-726683.0
16	16	14	47	987	236.0	3585033.0	-10737.0	-726536.0
16	16	14	48	7	237.0	3068123.0	-14557.0	-726532.0
16	16	14	48	7	238.0	2624151.0	-17027.0	-726521.0
16	16	14	48	7	239.0	2223006.0	-16634.0	-726426.0
16	16	14	48	8	240.0	1867273.0	-15428.0	-726617.0
16	16	14	48	8	241.0	1587601.0	-15035.0	-726294.0
16	16	14	48	8	242.0	1372864.0	-15046.0	-726411.0
16	16	14	48	9	243.0	1240106.0	-14984.0	-726103.0
16	16	14	48	9	244.0	1143869.0	-17927.0	-726211.0
16	16	14	48	30	245.0	1087498.0	-21397.0	-726156.0
16	16	14	48	31	246.0	1112542.0	-22802.0	-726120.0
16	16	14	48	31	247.0	1223563.0	-21408.0	-726054.0
16	16	14	48	31	248.0	1387754.0	-20305.0	-726048.0
16	16	14	48	32	249.0	1618750.0	-19499.0	-726105.0
16	16	14	48	32	250.0	1912741.0	-18979.0	-726012.0
16	16	14	48	32	251.0	2264751.0	-19988.0	-726249.0
16	16	14	48	32	252.0	2644144.0	-22834.0	-726139.0
16	16	14	48	33	253.0	3053407.0	-24321.0	-726351.0
16	16	14	48	33	254.0	3427962.0	-21622.0	-726231.0
16	16	14	48	33	255.0	3790361.0	-19352.0	-726467.0
16	16	14	48	34	0.0	4138096.0	-18468.0	-726239.0
16	16	14	48	34	1.0	4460115.0	-17849.0	-726348.0
16	16	14	48	34	2.0	4778370.0	-18258.0	-726132.0
16	16	14	48	35	3.0	5084688.0	-21392.0	-726221.0
16	16	14	48	54	4.0	5359938.0	-24249.0	-726060.0
16	16	14	48	54	5.0	5610839.0	-24337.0	-726255.0
16	16	14	48	54	6.0	5825199.0	-22467.0	-726208.0
16	16	14	48	55	7.0	6000538.0	-20950.0	-726341.0
16	16	14	48	55	8.0	6149328.0	-20193.0	-726467.0
16	16	14	48	56	9.0	6258431.0	-19401.0	-726422.0
16	16	14	48	56	10.0	6331911.0	-20013.0	-726707.0
16	16	14	48	56	11.0	6356743.0	-23139.0	-726662.0
16	16	14	48	56	12.0	6342616.0	-24531.0	-726826.0
16	16	14	48	57	13.0	6294538.0	-22335.0	-726531.0
16	16	14	48	57	14.0	6213627.0	-20730.0	-726722.0
16	16	14	48	57	15.0	6105029.0	-19556.0	-726385.0
16	16	14	48	78	16.0	5980353.0	-18711.0	-726525.0
16	16	14	48	78	17.0	5840835.0	-18661.0	-726198.0
16	16	14	48	79	18.0	5682276.0	-21193.0	-726419.0
16	16	14	48	79	19.0	5494269.0	-23775.0	-726068.0
16	16	14	48	79	20.0	5303903.0	-23171.0	-726276.0
16	16	14	48	80	21.0	5145073.0	-20479.0	-726049.0
16	16	14	48	80	22.0	4993336.0	-18846.0	-726290.0
16	16	14	48	80	23.0	4805387.0	-17192.0	-726063.0
16	16	14	48	81	24.0	4606071.0	-16222.0	-726224.0
16	16	14	48	81	25.0	4389240.0	-17134.0	-726067.0
16	16	14	48	100	26.0	4169838.0	-20723.0	-726127.0
16	16	14	48	100	27.0	3955043.0	-22346.0	-726098.0
16	16	14	48	101	28.0	3761007.0	-20071.0	-726404.0
16	16	14	48	101	29.0	3564511.0	-16849.0	-726171.0
16	16	14	48	101	30.0	3371946.0	-15127.0	-726406.0
16	16	14	48	102	31.0	3190023.0	-13564.0	-726206.0
16	16	14	48	102	32.0	3019944.0	-12587.0	-726356.0
16	16	14	48	102	33.0	2858557.0	-15287.0	-726256.0
16	16	14	48	103	34.0	2729748.0	-18026.0	-726447.0
16	16	14	48	103	35.0	2636989.0	-17007.0	-726376.0
16	16	14	48	103	36.0	2585110.0	-13954.0	-726367.0
16	16	14	48	104	37.0	2572684.0	-12266.0	-726484.0
16	16	14	48	104	38.0	2595784.0	-11422.0	-726321.0
16	16	14	48	104	39.0	2644070.0	-10661.0	-726388.0
16	16	14	48	122	40.0	2676616.0	-10820.0	-726294.0
16	16	14	48	123	41.0	2739044.0	-14064.0	-726586.0
16	16	14	48	123	42.0	2871133.0	-15599.0	-726502.0
16	16	14	48	123	43.0	3034223.0	-13646.0	-726912.0
16	16	14	48	124	44.0	3184829.0	-10491.0	-726745.0
16	16	14	48	124	45.0	3293216.0	-8212.0	-726901.0
16	16	14	48	124	46.0	3353133.0	-6880.0	-726754.0
16	16	14	48	125	47.0	3377661.0	-6486.0	-727064.0
16	16	14	48	125	48.0	3383623.0	-9320.0	-726894.0
16	16	14	48	145	49.0	3392933.0	-11813.0	-726920.0
16	16	14	48	145	50.0	3370579.0	-12514.0	-726672.0
16	16	14	48	146	51.0	3312701.0	-10025.0	-726722.0
16	16	14	48	146	52.0	3245480.0	-7275.0	-726620.0
16	16	14	48	146	53.0	3167182.0	-5632.0	-726619.0
16	16	14	48	147	54.0	3103245.0	-4474.0	-726637.0
16	16	14	48	147	55.0	3068144.0	-5060.0	-726671.0
16	16	14	48	147	56.0	3062286.0	-7632.0	-726829.0
16	16	14	48	148	57.0	3070759.0	-7929.0	-726732.0
16	16	14	48	148	58.0	3104725.0	-5129.0	-726896.0
16	16	14	48	148	59.0	3159061.0	-2949.0	-726783.0
16	16	14	48	149	60.0	3241751.0	-1575.0	-727187.0
16	16	14	48	149	61.0	3374738.0	-441.0	-726922.0
16	16	14	48	149	62.0	3550667.0	-367.0	-727146.0
16	16	14	48	167	63.0	3760481.0	-2710.0	-726905.0
16	16	14	48	167	64.0	3952828.0	-5189.0	-727232.0
16	16	14	48	167	65.0	4130558.0	-3859.0	-726943.0
16	16	14	48	168	66.0	4264401.0	-1284.0	-727270.0
16	16	14	48	168	67.0	4313744.0	882.0	-726956.0
16	16	14	48	169	68.0	4288751.0	2909.0	-727039.0
16	16	14	48	169	69.0	4173129.0	3627.0	-726943.0
16	16	14	48	169	70.0	3995028.0	2587.0	-727129.0
16	16	14	48	188	71.0	3769711.0	-174.0	-727005.0
16	16	14	48	188	72.0	3511648.0	-1679.0	-727288.0
16	16	14	48	189	73.0	3074833.0	-244.0	-726958.0
16	16	14	48	189	74.0	2253654.0	1768.0	-727105.0
16	16	14	48	190	75.0	1068017.0	2744.0	-726767.0
16	16	14	48	190	76.0	-105181.0	3461.0	-726889.0
16	16	14	48	190	77.0	-844882.0	3933.0	-726563.0
16	16	14	48	191	78.0	-1094022.0	2551.0	-726787.0
16	16	14	48	191	79.0	-924921.0	739.0	-726527.0
16	16	14	48	191	80.0	-454689.0	1123.0	-726739.0
16	16	14	48	210	81.0	162964.0	3133.0	-726567.0
16	16	14	48	210	82.0	834492.0	4915.0	-726777.0
16	16	14	48	211	83.0	1545916.0	6069.0	-726590.0
16	16	14	48	211	84.0	2270582.0	7208.0	-726773.0
16	16	14	48	211	85.0	2941286.0	6249.0	-726708.0
16	16	14	48	211	86.0	3423998.0	3746.0	-726899.0
16	16	14	48	212	87.0	3559929.0	3063.0	-726983.0
16	16	14	48	212	88.0	3357655.0	4810.0	-726827.0
16	16	14	48	212	89.0	2972748.0	6733.0	-726670.0
16	16	14	48	231	90.0	2485937.0	7983.0	-726550.0
16	16	14	48	231	91.0	1890724.0	9189.0	-726679.0
16	16	14	48	232	92.0	1192803.0	9561.0	-726537.0
16	16	14	48	232	93.0	451463.0	6715.0	-726544.0
16	16	14	48	233	94.0	-240857.0	6616.0	-726375.0
16	16	14	48	233	95.0	-773782.0	8303.0	-726605.0
16	16	14	48	233	96.0	-1061895.0	9151.0	-726383.0
16	16	14	48	233	97.0	-1106541.0	10110.0	-726691.0
16	16	14	48	234	98.0	-1011191.0	10350.0	-726515.0
16	16	14	48	234	99.0	-831831.0	10801.0	-726626.0
16	16	14	48	234	100.0	-613347.0	9568.0	-726378.0
16	16	14	48	235	101.0	-336382.0	6476.0	-726554.0
16	16	14	48	251	102.0	17898.0	4534.0	-726431.0
16	16	14	48	251	103.0	443989.0	2906.0	-726556.0
16	16	14	48	252	104.0	898705.0	4246.0	-726446.0
16	16	14	48	252	105.0	1334768.0	6887.0	-726441.0
16	16	14	48	252	106.0	1715932.0	8655.0	-726357.0
16	16	14	48	253	107.0	2002356.0	9208.0	-726444.0
16	16	14	48	253	108.0	2165148.0	6908.0	-726559.0
16	16	14	48	273	109.0	2208415.0	5224.0	-726474.0
16	16	14	48	273	110.0	2149858.0	7387.0	-726562.0
16	16	14	48	273	111.0	1996393.0	8929.0	-726426.0
16	16	14	48	274	112.0	1771514.0	9687.0	-726574.0
16	16	14	48	274	113.0	1497208.0	10510.0	-726337.0
16	16	14	48	274	114.0	1195180.0	11239.0	-726497.0
16	16	14	48	275	115.0	894415.0	9763.0	-726047.0
16	16	14	48	275	116.0	630341.0	6598.0	-726192.0
16	16	14	48	275	117.0	421736.0	5193.0	-726061.0
16	16	14	48	276	118.0	282591.0	6845.0	-726250.0
16	16	14	48	276	119.0	209053.0	8149.0	-726244.0
16	16	14	48	276	120.0	202539.0	9121.0	-726264.0
16	16	14	48	277	121.0	234598.0	10201.0	-726081.0
16	16	14	48	277	122.0	265981.0	10499.0	-726215.0
16	16	14	48	294	123.0	285403.0	8539.0	-726079.0
16	16	14	48	295	124.0	296133.0	7041.0	-726174.0
16	16	14	48	295	125.0	310026.0	8417.0	-725982.0
16	16	14	48	295	126.0	322180.0	10134.0	-726299.0
16	16	14	48	296	127.0	318381.0	11164.0	-726064.0
16	16	14	48	296	128.0	303332.0	11788.0	-726237.0
16	16	14	48	296	129.0	289127.0	12578.0	-726001.0
16	16	14	48	297	130.0	296454.0	11029.0	-726186.0
16	16	14	48	297	131.0	334016.0	8322.0	-725891.0
16	16	14	48	297	132.0	395084.0	6757.0	-726172.0
16	16	14	48	298	133.0	464303.0	7669.0	-726037.0
16	16	14	48	298	134.0	539914.0	9629.0	-726189.0
16	16	14	48	298	135.0	621723.0	11366.0	-726170.0
16	16	14	48	298	136.0	695914.0	12294.0	-726240.0
16	16	14	48	299	137.0	753429.0	12508.0	-726192.0
16	16	14	48	322	138.0	804166.0	9613.0	-726081.0
16	16	14	48	323	139.0	845998.0	7641.0	-726079.0
16	16	14	48	324	140.0	874236.0	8485.0	-726169.0
16	16	14	48	326	141.0	887483.0	10534.0	-726244.0
16	16	14	48	328	142.0	859260.0	11935.0	-726274.0
16	16	14	48	329	143.0	791452.0	12730.0	-726431.0
16	16	14	48	331	144.0	702032.0	13201.0	-726351.0
16	16	14	48	332	145.0	586862.0	13693.0	-726610.0
16	16	14	48	334	146.0	442953.0	14860.0	-726357.0
16	16	14	48	336	147.0	259350.0	15401.0	-726429.0
16	16	14	48	338	148.0	34277.0	15893.0	-726137.0
16	16	14	48	339	149.0	-208462.0	16824.0	-726326.0
16	16	14	48	340	150.0	-436089.0	18035.0	-726071.0
16	16	14	48	341	151.0	-650175.0	19093.0	-726427.0
16	16	14	48	342	152.0	-860161.0	19605.0	-726217.0
16	16	14	48	343	153.0	-1065270.0	17983.0	-726506.0
16	16	14	48	345	154.0	-1268172.0	16983.0	-726354.0
16	16	14	48	346	155.0	-1481278.0	16872.0	-726461.0
16	16	14	48	347	156.0	-1694277.0	17428.0	-726301.0
16	16	14	48	347	157.0	-1890872.0	17966.0	-726237.0
16	16	14	48	348	158.0	-2057774.0	19713.0	-726127.0
16	16	14	48	360	159.0	-2176007.0	24664.0	-726304.0
16	16	14	48	360	160.0	-2235081.0	28513.0	-726226.0
16	16	14	48	361	161.0	-2241925.0	32860.0	-726532.0
16	16	14	48	361	162.0	-2183137.0	37882.0	-726366.0
16	16	14	48	362	163.0	-2075267.0	42736.0	-726647.0
16	16	14	48	362	164.0	-1939179.0	47211.0	-726316.0
16	16	14	48	363	165.0	-1790522.0	50943.0	-726674.0
16	16	14	48	363	166.0	-1654645.0	54553.0	-726413.0
16	16	14	48	363	167.0	-1518566.0	57748.0	-726551.0
16	16	14	48	364	168.0	-1378049.0	58616.0	-726377.0
16	16	14	48	392	169.0	-1251401.0	59797.0	-726473.0
16	16	14	48	393	170.0	-1131477.0	61694.0	-726394.0
16	16	14	48	393	171.0	-1014959.0	66481.0	-726569.0
16	16	14	48	394	172.0	-907692.0	72125.0	-726547.0
16	16	14	48	394	173.0	-802806.0	76504.0	-726581.0
16	16	14	48	394	174.0	-711147.0	80396.0	-726664.0
16	16	14	48	395	175.0	-625257.0	82468.0	-726564.0
16	16	14	48	395	176.0	-535985.0	83292.0	-726655.0
16	16	14	48	396	177.0	-452284.0	86979.0	-726567.0
16	16	14	48	396	178.0	-381282.0	91256.0	-726867.0
16	16	14	48	396	179.0	-332037.0	94705.0	-726572.0
16	16	14	48	397	180.0	-301684.0	98439.0	-726665.0
16	16	14	48	397	181.0	-279577.0	100552.0	-726436.0
16	16	14	48	397	182.0	-268001.0	102049.0	-726578.0
16	16	14	48	398	183.0	-268858.0	101521.0	-726367.0
16	16	14	48	417	184.0	-277586.0	100965.0	-726492.0
16	16	14	48	418	185.0	-296910.0	101598.0	-726351.0
16	16	14	48	418	186.0	-327533.0	104703.0	-726366.0
16	16	14	48	418	187.0	-361431.0	107072.0	-726297.0
16	16	14	48	419	188.0	-409517.0	108459.0	-726474.0
16	16	14	48	419	189.0	-474719.0	109859.0	-726462.0
16	16	14	48	440	190.0	-563282.0	108944.0	-726403.0
16	16	14	48	440	191.0	-686804.0	106241.0	-726322.0
16	16	14	48	440	192.0	-833697.0	105963.0	-726137.0
16	16	14	48	441	193.0	-982378.0	106985.0	-726169.0
16	16	14	48	441	194.0	-1125892.0	107698.0	-726000.0
16	16	14	48	441	195.0	-1243380.0	107899.0	-726084.0
16	16	14	48	441	196.0	-1327361.0	106791.0	-725773.0
16	16	14	48	441	197.0	-1381258.0	104882.0	-726071.0
16	16	14	48	442	198.0	-1412561.0	102769.0	-725750.0
16	16	14	48	442	199.0	-1430742.0	100938.0	-725895.0
16	16	14	48	442	200.0	-1442226.0	98204.0	-725506.0
16	16	14	48	442	201.0	-1464038.0	95723.0	-725647.0
16	16	14	48	443	202.0	-1503196.0	93414.0	-725562.0
16	16	14	48	443	203.0	-1577437.0	91113.0	-725746.0
16	16	14	48	443	204.0	-1664449.0	87803.0	-725796.0
16	16	14	48	443	205.0	-1779121.0	82254.0	-725937.0
16	16	14	48	461	206.0	-1986992.0	75773.0	-725717.0
16	16	14	48	462	207.0	-2356814.0	70038.0	-725781.0
16	16	14	48	462	208.0	-2946998.0	64866.0	-725549.0
16	16	14	48	462	209.0	-3454374.0	60018.0	-725899.0
16	16	14	48	463	210.0	-3399963.0	55286.0	-725659.0
16	16	14	48	463	211.0	-2861577.0	52564.0	-725891.0
16	16	14	48	463	212.0	-2017305.0	50203.0	-725728.0
16	16	14	48	463	213.0	-1159913.0	45381.0	-726069.0
16	16	14	48	464	214.0	-470989.0	43238.0	-725854.0
16	16	14	48	464	215.0	2603.0	40664.0	-726058.0
16	16	14	48	464	216.0	300034.0	37732.0	-725808.0
16	16	14	48	465	217.0	447031.0	34723.0	-726019.0
16	16	14	48	465	218.0	547914.0	31824.0	-725947.0
16	16	14	48	465	219.0	588715.0	28163.0	-726159.0
16	16	14	48	466	220.0	548241.0	21775.0	-726079.0
16	16	14	48	484	221.0	461648.0	14765.0	-726224.0
16	16	14	48	484	222.0	329114.0	9958.0	-726307.0
16	16	14	48	485	223.0	160741.0	6885.0	-726361.0
16	16	14	48	485	224.0	-12136.0	4684.0	-726362.0
16	16	14	48	486	225.0	-178554.0	2253.0	-726202.0
16	16	14	48	486	226.0	-335619.0	-39.0	-726290.0
16	16	14	48	486	227.0	-451447.0	-3591.0	-726069.0
16	16	14	48	506	228.0	-536108.0	-9674.0	-726306.0
16	16	14	48	507	229.0	-601422.0	-14636.0	-726072.0
16	16	14	48	507	230.0	-664315.0	-16204.0	-726244.0
16	16	14	48	507	231.0	-719707.0	-17477.0	-725991.0
16	16	14	48	508	232.0	-783259.0	-18594.0	-726137.0
16	16	14	48	508	233.0	-899274.0	-19891.0	-725886.0
16	16	14	48	508	234.0	-1029302.0	-21801.0	-726141.0
16	16	14	48	509	235.0	-1110523.0	-25577.0	-725942.0
16	16	14	48	509	236.0	-1117547.0	-30481.0	-725980.0
16	16	14	48	509	237.0	-1045889.0	-34071.0	-725801.0
16	16	14	48	509	238.0	-902881.0	-33857.0	-725912.0
16	16	14	48	510	239.0	-702700.0	-33709.0	-725802.0
16	16	14	48	510	240.0	-480719.0	-33805.0	-725831.0
16	16	14	48	510	241.0	-255702.0	-34673.0	-725762.0
16	16	14	48	511	242.0	-64944.0	-36351.0	-725669.0
16	16	14	48	529	243.0	63694.0	-39697.0	-725744.0
16	16	14	48	530	244.0	129428.0	-42403.0	-725833.0
16	16	14	48	530	245.0	131010.0	-42574.0	-725786.0
16	16	14	48	530	246.0	63833.0	-42222.0	-725716.0
16	16	14	48	531	247.0	-66437.0	-42650.0	-725570.0
16	16	14	48	531	248.0	-230243.0	-42736.0	-725552.0
16	16	14	48	531	249.0	-414928.0	-43216.0	-725731.0
16	16	14	48	532	250.0	-591068.0	-45980.0	-725641.0
16	16	14	48	551	251.0	-738690.0	-49447.0	-725777.0
16	16	14	48	551	252.0	-845460.0	-51186.0	-725699.0
16	16	14	48	552	253.0	-905610.0	-50032.0	-725957.0
