

16  15	10	40	901	205.0	101987.0	-15570.0	-5642359.0
16	15	10	40	901	206.0	81549.0	-15982.0	-5641646.0
16	15	10	40	902	207.0	69371.0	-16217.0	-5641995.0
16	15	10	40	902	208.0	59573.0	-16152.0	-5643032.0
16	15	10	40	902	209.0	55536.0	-14242.0	-5642283.0
16	15	10	40	902	210.0	61105.0	-13587.0	-5641520.0
16	15	10	40	903	211.0	76954.0	-16217.0	-5641541.0
16	15	10	40	903	212.0	94679.0	-17910.0	-5643042.0
16	15	10	40	903	213.0	115521.0	-16896.0	-5642556.0
16	15	10	40	904	214.0	135937.0	-14864.0	-5641809.0
16	15	10	40	904	215.0	159188.0	-15076.0	-5641940.0
16	15	10	40	904	216.0	175616.0	-15098.0	-5643234.0
16	15	10	40	905	217.0	186999.0	-14967.0	-5642675.0
16	15	10	40	905	218.0	186383.0	-16694.0	-5641881.0
16	15	10	40	905	219.0	170236.0	-18874.0	-5642139.0
16	15	10	40	905	220.0	147706.0	-18494.0	-5643265.0
16	15	10	40	906	221.0	120979.0	-16105.0	-5642622.0
16	15	10	40	906	222.0	92185.0	-15520.0	-5641831.0
16	15	10	40	906	223.0	62035.0	-15572.0	-5642080.0
16	15	10	40	907	224.0	36919.0	-15246.0	-5643176.0
16	15	10	40	907	225.0	7666.0	-16242.0	-5642542.0
16	15	10	40	907	226.0	-14452.0	-18677.0	-5641716.0
16	15	10	40	908	227.0	-31501.0	-19617.0	-5641949.0
16	15	10	40	908	228.0	-39739.0	-17791.0	-5642968.0
16	15	10	40	908	229.0	-49825.0	-15056.0	-5642357.0
16	15	10	40	909	230.0	-42426.0	-14688.0	-5641552.0
16	15	10	40	909	231.0	-25052.0	-14814.0	-5641868.0
16	15	10	40	909	232.0	-12744.0	-15553.0	-5642944.0
16	15	10	40	910	233.0	-18119.0	-15819.0	-5642374.0
16	15	10	40	910	234.0	-28869.0	-17875.0	-5641656.0
16	15	10	40	910	235.0	-41737.0	-17457.0	-5642806.0
16	15	10	40	911	236.0	-56589.0	-14735.0	-5643211.0
16	15	10	40	911	237.0	-68164.0	-13675.0	-5642477.0
16	15	10	40	911	238.0	-79451.0	-12998.0	-5641767.0
16	15	10	40	912	239.0	-87514.0	-12896.0	-5642969.0
16	15	10	40	912	240.0	-95771.0	-13097.0	-5643372.0
16	15	10	40	912	241.0	-107388.0	-15359.0	-5642626.0
16	15	10	40	913	242.0	-111639.0	-16497.0	-5641760.0
16	15	10	40	913	243.0	-109534.0	-14774.0	-5642133.0
16	15	10	40	914	244.0	-102562.0	-12236.0	-5642969.0
16	15	10	40	914	245.0	-92795.0	-11905.0	-5642332.0
16	15	10	40	914	246.0	-78533.0	-11102.0	-5641631.0
16	15	10	40	915	247.0	-58212.0	-10777.0	-5642727.0
16	15	10	40	915	248.0	-30549.0	-12156.0	-5643114.0
16	15	10	41	14	249.0	9224.0	-14137.0	-5642367.0
16	15	10	41	14	250.0	54539.0	-12611.0	-5641718.0
16	15	10	41	15	251.0	96644.0	-9684.0	-5642677.0
16	15	10	41	15	252.0	131508.0	-8966.0	-5642812.0
16	15	10	41	15	253.0	151568.0	-8961.0	-5642111.0
16	15	10	41	15	254.0	154253.0	-8935.0	-5642611.0
16	15	10	41	16	255.0	148308.0	-8957.0	-5643642.0
16	15	10	41	16	0.0	146033.0	-11183.0	-5642914.0
16	15	10	41	16	1.0	140768.0	-11396.0	-5642193.0
16	15	10	41	16	2.0	134461.0	-10156.0	-5642336.0
16	15	10	41	17	3.0	117309.0	-7330.0	-5643356.0
16	15	10	41	17	4.0	91216.0	-6374.0	-5642699.0
16	15	10	41	17	5.0	57506.0	-6117.0	-5641928.0
16	15	10	41	17	6.0	23478.0	-5631.0	-5642058.0
16	15	10	41	18	7.0	-3916.0	-6693.0	-5643264.0
16	15	10	41	18	8.0	-29658.0	-8587.0	-5642699.0
16	15	10	41	18	9.0	-50036.0	-7977.0	-5641928.0
16	15	10	41	18	10.0	-64866.0	-5211.0	-5642501.0
16	15	10	41	18	11.0	-71367.0	-4609.0	-5643467.0
16	15	10	41	19	12.0	-67438.0	-4308.0	-5642767.0
16	15	10	41	19	13.0	-71090.0	-4077.0	-5642002.0
16	15	10	41	19	14.0	-86604.0	-4402.0	-5642563.0
16	15	10	41	19	15.0	-104983.0	-6887.0	-5643475.0
16	15	10	41	20	16.0	-116911.0	-7587.0	-5642804.0
16	15	10	41	20	17.0	-118595.0	-6042.0	-5642004.0
16	15	10	41	20	18.0	-120296.0	-3529.0	-5642765.0
16	15	10	41	20	19.0	-114051.0	-3037.0	-5643587.0
16	15	10	41	21	20.0	-108184.0	-2632.0	-5642918.0
16	15	10	41	21	21.0	-91866.0	-2606.0	-5642054.0
16	15	10	41	21	22.0	-76200.0	-3751.0	-5642456.0
16	15	10	41	22	23.0	-58137.0	-5334.0	-5643347.0
16	15	10	41	22	24.0	-29417.0	-4772.0	-5642721.0
16	15	10	41	22	25.0	-2131.0	-1870.0	-5641826.0
16	15	10	41	22	26.0	24541.0	-1006.0	-5642132.0
16	15	10	41	23	27.0	49874.0	-1014.0	-5643188.0
16	15	10	41	23	28.0	71381.0	-1280.0	-5642632.0
16	15	10	41	23	29.0	91636.0	-1556.0	-5641904.0
16	15	10	41	24	30.0	112229.0	-4425.0	-5642922.0
16	15	10	41	24	31.0	139558.0	-5265.0	-5643177.0
16	15	10	41	24	32.0	174973.0	-3579.0	-5642429.0
16	15	10	41	24	33.0	217258.0	-1492.0	-5641754.0
16	15	10	41	25	34.0	260111.0	-1031.0	-5642676.0
16	15	10	41	25	35.0	284734.0	-1276.0	-5642606.0
16	15	10	41	25	36.0	303468.0	-1183.0	-5641858.0
16	15	10	41	25	37.0	317249.0	-2851.0	-5642100.0
16	15	10	41	26	38.0	324328.0	-5371.0	-5643329.0
16	15	10	41	26	39.0	307449.0	-4674.0	-5642662.0
16	15	10	41	26	40.0	255182.0	-1879.0	-5641924.0
16	15	10	41	27	41.0	212389.0	-1260.0	-5642320.0
16	15	10	41	27	42.0	211348.0	-1009.0	-5643474.0
16	15	10	41	27	43.0	16252.0	-1104.0	-5642733.0
16	15	10	41	27	44.0	-560935.0	-1810.0	-5641929.0
16	15	10	41	27	45.0	-1137588.0	-4726.0	-5642243.0
16	15	10	41	28	46.0	-1300931.0	-5887.0	-5643047.0
16	15	10	41	28	47.0	-1122334.0	-3418.0	-5642309.0
16	15	10	41	28	48.0	-785508.0	-1989.0	-5641622.0
16	15	10	41	28	49.0	-356434.0	-1814.0	-5642404.0
16	15	10	41	29	50.0	2911.0	-1913.0	-5643360.0
16	15	10	41	29	51.0	168362.0	-2284.0	-5642575.0
16	15	10	41	29	52.0	246176.0	-3955.0	-5641796.0
16	15	10	41	117	53.0	395928.0	-5673.0	-5642039.0
16	15	10	41	118	54.0	528749.0	-5752.0	-5643406.0
16	15	10	41	118	55.0	477084.0	-3250.0	-5642850.0
16	15	10	41	118	56.0	256990.0	-1854.0	-5641969.0
16	15	10	41	119	57.0	-6257.0	-1962.0	-5642106.0
16	15	10	41	119	58.0	-161686.0	-1969.0	-5643345.0
16	15	10	41	119	59.0	-173869.0	-2404.0	-5642819.0
16	15	10	41	120	60.0	-90338.0	-5232.0	-5642054.0
16	15	10	41	120	61.0	21521.0	-5648.0	-5642629.0
16	15	10	41	120	62.0	77554.0	-3071.0	-5643473.0
16	15	10	41	121	63.0	86007.0	-1865.0	-5642813.0
16	15	10	41	121	64.0	98294.0	-1557.0	-5642015.0
16	15	10	41	121	65.0	165798.0	-1595.0	-5642492.0
16	15	10	41	121	66.0	238693.0	-1669.0	-5643486.0
16	15	10	41	122	67.0	246241.0	-3886.0	-5642862.0
16	15	10	41	122	68.0	195591.0	-6107.0	-5641972.0
16	15	10	41	122	69.0	133473.0	-5752.0	-5642196.0
16	15	10	41	122	70.0	79080.0	-3173.0	-5643361.0
16	15	10	41	123	71.0	19763.0	-1536.0	-5642847.0
16	15	10	41	123	72.0	-70503.0	-1871.0	-5641958.0
16	15	10	41	123	73.0	-185050.0	-2136.0	-5642084.0
16	15	10	41	123	74.0	-278220.0	-2809.0	-5643464.0
16	15	10	41	124	75.0	-336010.0	-5537.0	-5643044.0
16	15	10	41	124	76.0	-362059.0	-5925.0	-5642202.0
16	15	10	41	124	77.0	-361899.0	-3378.0	-5642694.0
16	15	10	41	124	78.0	-338706.0	-2248.0	-5643728.0
16	15	10	41	125	79.0	-304569.0	-1790.0	-5643124.0
16	15	10	41	125	80.0	-273937.0	-1767.0	-5642297.0
16	15	10	41	125	81.0	-249037.0	-1955.0	-5642982.0
16	15	10	41	126	82.0	-232695.0	-3419.0	-5643671.0
16	15	10	41	126	83.0	-215699.0	-5199.0	-5642928.0
16	15	10	41	126	84.0	-195437.0	-5455.0	-5642093.0
16	15	10	41	127	85.0	-177236.0	-2654.0	-5642090.0
16	15	10	41	127	86.0	-170575.0	-1377.0	-5643368.0
16	15	10	41	128	87.0	-177104.0	-1492.0	-5642872.0
16	15	10	41	128	88.0	-187332.0	-1566.0	-5642059.0
16	15	10	41	128	89.0	-183052.0	-2174.0	-5642361.0
16	15	10	41	128	90.0	-165644.0	-4491.0	-5643071.0
16	15	10	41	129	91.0	-154736.0	-4258.0	-5642437.0
16	15	10	41	129	92.0	-149673.0	-1923.0	-5642527.0
16	15	10	41	129	93.0	-139582.0	-462.0	-5643703.0
16	15	10	41	129	94.0	-132472.0	-357.0	-5643096.0
16	15	10	41	130	95.0	-112599.0	-620.0	-5642298.0
16	15	10	41	130	96.0	-76411.0	-564.0	-5642444.0
16	15	10	41	130	97.0	-50639.0	-2007.0	-5643686.0
16	15	10	41	131	98.0	-32698.0	-3805.0	-5643111.0
16	15	10	41	131	99.0	17.0	-3967.0	-5642237.0
16	15	10	41	131	100.0	22492.0	-1204.0	-5642537.0
16	15	10	41	132	101.0	29762.0	383.0	-5643622.0
16	15	10	41	132	102.0	46991.0	495.0	-5643054.0
16	15	10	41	132	103.0	68398.0	669.0	-5642221.0
16	15	10	41	133	104.0	84157.0	652.0	-5642194.0
16	15	10	41	133	105.0	94036.0	-1537.0	-5643477.0
16	15	10	41	133	106.0	108076.0	-1186.0	-5643124.0
16	15	10	41	134	107.0	119197.0	822.0	-5642282.0
16	15	10	41	134	108.0	109929.0	1314.0	-5642812.0
16	15	10	41	134	109.0	102810.0	1896.0	-5643946.0
16	15	10	41	135	110.0	105444.0	1919.0	-5643362.0
16	15	10	41	135	111.0	108095.0	1890.0	-5642527.0
16	15	10	41	135	112.0	106259.0	177.0	-5643171.0
16	15	10	41	135	113.0	113074.0	-1112.0	-5644066.0
16	15	10	41	238	114.0	133488.0	-527.0	-5643425.0
16	15	10	41	239	115.0	155970.0	660.0	-5642519.0
16	15	10	41	239	116.0	159961.0	3693.0	-5642442.0
16	15	10	41	239	117.0	151238.0	4189.0	-5643616.0
16	15	10	41	239	118.0	147871.0	4930.0	-5643212.0
16	15	10	41	240	119.0	156356.0	4970.0	-5642347.0
16	15	10	41	240	120.0	164104.0	3073.0	-5642650.0
16	15	10	41	240	121.0	166708.0	3848.0	-5643742.0
16	15	10	41	241	122.0	161317.0	7181.0	-5643180.0
16	15	10	41	241	123.0	151866.0	8578.0	-5642382.0
16	15	10	41	241	124.0	143774.0	9654.0	-5643012.0
16	15	10	41	241	125.0	124889.0	10758.0	-5643972.0
16	15	10	41	242	126.0	115249.0	11791.0	-5643331.0
16	15	10	41	242	127.0	127046.0	10832.0	-5642567.0
16	15	10	41	242	128.0	157236.0	10541.0	-5643554.0
16	15	10	41	243	129.0	181940.0	12481.0	-5644113.0
16	15	10	41	243	130.0	186350.0	16550.0	-5643335.0
16	15	10	41	243	131.0	180363.0	18754.0	-5642464.0
16	15	10	41	243	132.0	165133.0	19965.0	-5642812.0
16	15	10	41	244	133.0	126101.0	22069.0	-5643824.0
16	15	10	41	244	134.0	84673.0	22989.0	-5643146.0
16	15	10	41	244	135.0	65464.0	21388.0	-5642340.0
16	15	10	41	245	136.0	52424.0	22758.0	-5642355.0
16	15	10	41	245	137.0	41931.0	26754.0	-5643140.0
16	15	10	41	245	138.0	30228.0	29507.0	-5642489.0
16	15	10	41	245	139.0	17638.0	31479.0	-5642961.0
16	15	10	41	246	140.0	-14624.0	33434.0	-5644093.0
16	15	10	41	246	141.0	-44478.0	34468.0	-5643446.0
16	15	10	41	246	142.0	-58411.0	33901.0	-5642652.0
16	15	10	41	247	143.0	-73296.0	33579.0	-5642958.0
16	15	10	41	247	144.0	-70326.0	35236.0	-5644152.0
16	15	10	41	247	145.0	-72481.0	38700.0	-5643562.0
16	15	10	41	248	146.0	-79079.0	40851.0	-5642740.0
16	15	10	41	248	147.0	-85232.0	41915.0	-5642628.0
16	15	10	41	248	148.0	-91832.0	42843.0	-5643925.0
16	15	10	41	248	149.0	-86641.0	43276.0	-5643571.0
16	15	10	41	249	150.0	-77599.0	41332.0	-5642759.0
16	15	10	41	249	151.0	-56826.0	41356.0	-5642841.0
16	15	10	41	249	152.0	-25103.0	43981.0	-5644122.0
16	15	10	41	250	153.0	5488.0	45485.0	-5643692.0
16	15	10	41	250	154.0	37089.0	46398.0	-5642823.0
16	15	10	41	250	155.0	61519.0	46445.0	-5643092.0
16	15	10	41	250	156.0	76311.0	46176.0	-5644407.0
16	15	10	41	251	157.0	99951.0	44718.0	-5643918.0
16	15	10	41	251	158.0	131444.0	45341.0	-5643089.0
16	15	10	41	251	159.0	155857.0	45052.0	-5643720.0
16	15	10	41	252	160.0	167693.0	44753.0	-5644641.0
16	15	10	41	252	161.0	162471.0	44544.0	-5643988.0
16	15	10	41	252	162.0	139287.0	43795.0	-5643117.0
16	15	10	41	253	163.0	108829.0	43661.0	-5643331.0
16	15	10	41	253	164.0	65929.0	41993.0	-5644479.0
16	15	10	41	253	165.0	16637.0	38321.0	-5643963.0
16	15	10	41	254	166.0	-25607.0	36701.0	-5643091.0
16	15	10	41	254	167.0	-74547.0	35469.0	-5643306.0
16	15	10	41	254	168.0	-161006.0	34539.0	-5644469.0
16	15	10	41	254	169.0	-401544.0	33601.0	-5643930.0
16	15	10	41	255	170.0	-774901.0	34469.0	-5643137.0
16	15	10	41	352	171.0	-872181.0	35419.0	-5643924.0
16	15	10	41	352	172.0	-349566.0	32958.0	-5644576.0
16	15	10	41	353	173.0	361538.0	33009.0	-5643936.0
16	15	10	41	353	174.0	580547.0	32429.0	-5643188.0
16	15	10	41	354	175.0	418153.0	31388.0	-5643861.0
16	15	10	41	354	176.0	307470.0	30373.0	-5644016.0
16	15	10	41	354	177.0	183477.0	29076.0	-5643324.0
16	15	10	41	355	178.0	-4051.0	27568.0	-5643880.0
16	15	10	41	355	179.0	-140884.0	25491.0	-5644654.0
16	15	10	41	355	180.0	-258987.0	21592.0	-5643831.0
16	15	10	41	355	181.0	-340434.0	19676.0	-5643038.0
16	15	10	41	356	182.0	-295587.0	18771.0	-5643134.0
16	15	10	41	356	183.0	-188029.0	20018.0	-5644299.0
16	15	10	41	356	184.0	-91350.0	19883.0	-5643710.0
16	15	10	41	357	185.0	9695.0	18900.0	-5642920.0
16	15	10	41	357	186.0	103684.0	16636.0	-5643031.0
16	15	10	41	357	187.0	150223.0	13239.0	-5644213.0
16	15	10	41	357	188.0	161009.0	10659.0	-5643627.0
16	15	10	41	358	189.0	180749.0	11623.0	-5642919.0
16	15	10	41	358	190.0	188964.0	11991.0	-5643703.0
16	15	10	41	358	191.0	187061.0	10920.0	-5644183.0
16	15	10	41	359	192.0	182081.0	9684.0	-5643386.0
16	15	10	41	359	193.0	155034.0	8494.0	-5642640.0
16	15	10	41	359	194.0	116251.0	6789.0	-5643339.0
16	15	10	41	359	195.0	80480.0	3723.0	-5643858.0
16	15	10	41	360	196.0	46709.0	2518.0	-5643116.0
16	15	10	41	360	197.0	19746.0	2771.0	-5642339.0
16	15	10	41	360	198.0	22610.0	3741.0	-5643158.0
16	15	10	41	361	199.0	38659.0	2896.0	-5643776.0
16	15	10	41	361	200.0	55915.0	2498.0	-5643093.0
16	15	10	41	362	201.0	80681.0	1679.0	-5642392.0
16	15	10	41	362	202.0	92508.0	-2012.0	-5643392.0
16	15	10	41	362	203.0	102053.0	-3870.0	-5643689.0
16	15	10	41	363	204.0	123948.0	-2147.0	-5642955.0
16	15	10	41	363	205.0	157236.0	-1812.0	-5642271.0
16	15	10	41	363	206.0	183702.0	-2414.0	-5643371.0
16	15	10	41	364	207.0	199301.0	-3328.0	-5643544.0
16	15	10	41	364	208.0	216801.0	-4432.0	-5642807.0
16	15	10	41	365	209.0	231248.0	-5942.0	-5642250.0
16	15	10	41	365	210.0	236973.0	-8931.0	-5643532.0
16	15	10	41	365	211.0	230774.0	-10064.0	-5643427.0
16	15	10	41	366	212.0	217033.0	-9169.0	-5642654.0
16	15	10	41	366	213.0	200609.0	-7049.0	-5642012.0
16	15	10	41	367	214.0	179326.0	-6797.0	-5643230.0
16	15	10	41	367	215.0	150918.0	-7281.0	-5643299.0
16	15	10	41	367	216.0	125634.0	-8124.0	-5642543.0
16	15	10	41	368	217.0	108497.0	-11091.0	-5641766.0
16	15	10	41	368	218.0	88663.0	-12971.0	-5642335.0
16	15	10	41	368	219.0	75448.0	-11453.0	-5642424.0
16	15	10	41	369	220.0	68209.0	-10414.0	-5641842.0
16	15	10	41	369	221.0	65091.0	-11138.0	-5642856.0
16	15	10	41	369	222.0	53161.0	-11553.0	-5643368.0
16	15	10	41	370	223.0	29547.0	-12299.0	-5642526.0
16	15	10	41	370	224.0	4133.0	-13466.0	-5641849.0
16	15	10	41	370	225.0	-9517.0	-16275.0	-5642494.0
16	15	10	41	466	226.0	-12866.0	-16864.0	-5643341.0
16	15	10	41	467	227.0	-21244.0	-16369.0	-5642517.0
16	15	10	41	467	228.0	-35714.0	-14297.0	-5641788.0
16	15	10	41	468	229.0	-45516.0	-13820.0	-5642587.0
16	15	10	41	468	230.0	-52547.0	-14068.0	-5643302.0
16	15	10	41	468	231.0	-57716.0	-15068.0	-5642515.0
16	15	10	41	468	232.0	-59126.0	-17612.0	-5641792.0
16	15	10	41	469	233.0	-60667.0	-18764.0	-5642262.0
16	15	10	41	469	234.0	-55792.0	-16224.0	-5643427.0
16	15	10	41	469	235.0	-51999.0	-15043.0	-5642782.0
16	15	10	41	470	236.0	-45714.0	-15178.0	-5642092.0
16	15	10	41	470	237.0	-35861.0	-15529.0	-5643006.0
16	15	10	41	470	238.0	-26476.0	-15742.0	-5643579.0
16	15	10	41	471	239.0	-16576.0	-17249.0	-5642782.0
16	15	10	41	471	240.0	-8934.0	-19472.0	-5642053.0
16	15	10	41	472	241.0	2820.0	-19317.0	-5642930.0
16	15	10	41	472	242.0	11388.0	-17216.0	-5643639.0
16	15	10	41	472	243.0	11524.0	-16115.0	-5642882.0
16	15	10	41	473	244.0	14944.0	-16041.0	-5642032.0
16	15	10	41	473	245.0	19352.0	-15690.0	-5642478.0
16	15	10	41	473	246.0	18089.0	-15788.0	-5643472.0
16	15	10	41	474	247.0	16550.0	-17891.0	-5642832.0
16	15	10	41	474	248.0	16226.0	-19009.0	-5642031.0
16	15	10	41	474	249.0	11886.0	-17675.0	-5642814.0
16	15	10	41	475	250.0	8722.0	-14856.0	-5643353.0
16	15	10	41	475	251.0	15699.0	-14442.0	-5642662.0
16	15	10	41	475	252.0	27136.0	-13185.0	-5641921.0
16	15	10	41	476	253.0	36414.0	-12994.0	-5642949.0
16	15	10	41	476	254.0	37390.0	-14264.0	-5643505.0
16	15	10	41	476	255.0	30419.0	-16057.0	-5642817.0
16	15	10	41	477	0.0	40181.0	-15226.0	-5642101.0
16	15	10	41	477	1.0	61469.0	-12335.0	-5643152.0
16	15	10	41	477	2.0	64788.0	-11962.0	-5643457.0
16	15	10	41	478	3.0	68208.0	-12147.0	-5642692.0
16	15	10	41	478	4.0	62739.0	-11611.0	-5642026.0
16	15	10	41	478	5.0	41339.0	-11354.0	-5643177.0
16	15	10	41	479	6.0	27562.0	-10940.0	-5643212.0
16	15	10	41	479	7.0	13123.0	-10094.0	-5642461.0
16	15	10	41	479	8.0	12756.0	-9099.0	-5641737.0
16	15	10	41	480	9.0	25277.0	-8856.0	-5642382.0
16	15	10	41	480	10.0	36443.0	-8482.0	-5642354.0
16	15	10	41	480	11.0	43281.0	-7937.0	-5641787.0
16	15	10	41	481	12.0	45098.0	-7929.0	-5642667.0
16	15	10	41	481	13.0	37976.0	-8957.0	-5642914.0
16	15	10	41	481	14.0	32322.0	-10577.0	-5642075.0
16	15	10	41	482	15.0	15813.0	-10491.0	-5641534.0
16	15	10	41	482	16.0	-4928.0	-10394.0	-5642602.0
16	15	10	41	482	17.0	-20319.0	-10267.0	-5642916.0
16	15	10	41	483	18.0	-46296.0	-9726.0	-5642016.0
16	15	10	41	483	19.0	-75511.0	-8234.0	-5641371.0
16	15	10	41	483	20.0	-100763.0	-5832.0	-5642403.0
16	15	10	41	484	21.0	-125984.0	-6912.0	-5642858.0
16	15	10	41	484	22.0	-145347.0	-4956.0	-5642015.0
16	15	10	41	484	23.0	-158087.0	-4679.0	-5641559.0
16	15	10	41	485	24.0	-157684.0	-4582.0	-5642759.0
16	15	10	41	485	25.0	-156866.0	-3777.0	-5642787.0
16	15	10	41	485	26.0	-152626.0	-3399.0	-5641969.0
16	15	10	41	486	27.0	-142005.0	-3153.0	-5641451.0
16	15	10	41	486	28.0	-127198.0	-4668.0	-5642617.0
16	15	10	41	486	29.0	-107174.0	-6934.0	-5642738.0
16	15	10	41	487	30.0	-79008.0	-6954.0	-5641879.0
16	15	10	41	487	31.0	-56902.0	-5859.0	-5641434.0
16	15	10	41	487	32.0	-42432.0	-2741.0	-5642709.0
16	15	10	41	488	33.0	-28126.0	-2226.0	-5642572.0
16	15	10	41	488	34.0	-12404.0	-2316.0	-5641768.0
16	15	10	41	488	35.0	11191.0	-2958.0	-5641236.0
16	15	10	41	591	36.0	45571.0	-5710.0	-5642612.0
16	15	10	41	592	37.0	81763.0	-6011.0	-5642624.0
16	15	10	41	592	38.0	119187.0	-3101.0	-5641839.0
16	15	10	41	592	39.0	141359.0	-2345.0	-5641245.0
16	15	10	41	593	40.0	154470.0	-2084.0	-5642584.0
16	15	10	41	593	41.0	170289.0	-2334.0	-5642712.0
16	15	10	41	593	42.0	176712.0	-2943.0	-5641939.0
16	15	10	41	594	43.0	179490.0	-4467.0	-5641870.0
16	15	10	41	594	44.0	188404.0	-6458.0	-5642729.0
16	15	10	41	594	45.0	195991.0	-6348.0	-5642131.0
16	15	10	41	594	46.0	196839.0	-4322.0	-5641427.0
16	15	10	41	595	47.0	199282.0	-2767.0	-5642312.0
16	15	10	41	595	48.0	210136.0	-2217.0	-5642844.0
16	15	10	41	595	49.0	230721.0	-2012.0	-5642032.0
16	15	10	41	596	50.0	253119.0	-2409.0	-5641395.0
16	15	10	41	596	51.0	257819.0	-4939.0	-5642331.0
16	15	10	41	596	52.0	250339.0	-5729.0	-5642732.0
16	15	10	41	596	53.0	255663.0	-4425.0	-5641871.0
16	15	10	41	597	54.0	242562.0	-1852.0	-5641373.0
16	15	10	41	597	55.0	69032.0	-1586.0	-5642681.0
16	15	10	41	597	56.0	-383289.0	-1171.0	-5642945.0
16	15	10	41	598	57.0	-848121.0	-1244.0	-5642060.0
16	15	10	41	598	58.0	-1038814.0	-1082.0	-5641444.0
16	15	10	41	598	59.0	-946616.0	-1031.0	-5642562.0
16	15	10	41	598	60.0	-661675.0	-889.0	-5643169.0
16	15	10	41	599	61.0	-283341.0	-573.0	-5642341.0
16	15	10	41	599	62.0	31824.0	-1137.0	-5641872.0
16	15	10	41	599	63.0	189495.0	-776.0	-5642961.0
16	15	10	41	599	64.0	277999.0	-120.0	-5643149.0
16	15	10	41	600	65.0	397697.0	-987.0	-5642311.0
16	15	10	41	600	66.0	491532.0	-3381.0	-5641685.0
16	15	10	41	600	67.0	442360.0	-4796.0	-5642481.0
16	15	10	41	601	68.0	273627.0	-5074.0	-5642978.0
16	15	10	41	601	69.0	151745.0	-4980.0	-5642132.0
16	15	10	41	601	70.0	100811.0	-5179.0	-5641409.0
16	15	10	41	602	71.0	11344.0	-4277.0	-5642296.0
16	15	10	41	602	72.0	-109372.0	-1926.0	-5642795.0
16	15	10	41	603	73.0	-156184.0	-2909.0	-5642031.0
16	15	10	41	603	74.0	-102234.0	-2647.0	-5641588.0
16	15	10	41	603	75.0	2688.0	-1369.0	-5643027.0
16	15	10	41	604	76.0	129338.0	-933.0	-5643092.0
16	15	10	41	604	77.0	221322.0	-1038.0	-5642294.0
16	15	10	41	604	78.0	194826.0	-736.0	-5641777.0
16	15	10	41	605	79.0	69239.0	-1127.0	-5643013.0
16	15	10	41	605	80.0	-47564.0	-2179.0	-5642934.0
16	15	10	41	605	81.0	-88542.0	-4716.0	-5642119.0
16	15	10	41	605	82.0	-78704.0	-5347.0	-5641497.0
16	15	10	41	606	83.0	-74894.0	-5068.0	-5642791.0
16	15	10	41	606	84.0	-99778.0	-2648.0	-5642890.0
16	15	10	41	606	85.0	-124927.0	-1481.0	-5642160.0
16	15	10	41	606	86.0	-164442.0	-1577.0	-5641481.0
16	15	10	41	607	87.0	-223510.0	-822.0	-5642558.0
16	15	10	41	607	88.0	-266958.0	-2421.0	-5642717.0
16	15	10	41	725	89.0	-278632.0	-4503.0	-5641955.0
16	15	10	41	725	90.0	-264595.0	-4127.0	-5641377.0
16	15	10	41	726	91.0	-243646.0	-1663.0	-5642271.0
16	15	10	41	726	92.0	-216813.0	-1051.0	-5642022.0
16	15	10	41	727	93.0	-189834.0	-1119.0	-5641656.0
16	15	10	41	727	94.0	-164268.0	-1154.0	-5643006.0
16	15	10	41	727	95.0	-149727.0	-1656.0	-5642986.0
16	15	10	41	728	96.0	-150813.0	-3941.0	-5642119.0
16	15	10	41	728	97.0	-163497.0	-4336.0	-5641588.0
16	15	10	41	728	98.0	-182777.0	-2024.0	-5642638.0
16	15	10	41	729	99.0	-203545.0	-772.0	-5642762.0
16	15	10	41	729	100.0	-214979.0	-931.0	-5641876.0
16	15	10	41	729	101.0	-210107.0	-1204.0	-5641566.0
16	15	10	41	729	102.0	-198137.0	-917.0	-5643026.0
16	15	10	41	730	103.0	-172897.0	-2529.0	-5643040.0
16	15	10	41	730	104.0	-135403.0	-5025.0	-5642192.0
16	15	10	41	730	105.0	-100962.0	-4639.0	-5641596.0
16	15	10	41	731	106.0	-72566.0	-1608.0	-5642584.0
16	15	10	41	731	107.0	-41907.0	-947.0	-5643051.0
16	15	10	41	731	108.0	-15747.0	-1043.0	-5642196.0
16	15	10	41	732	109.0	1704.0	-726.0	-5641775.0
16	15	10	41	732	110.0	16617.0	-716.0	-5642899.0
16	15	10	41	732	111.0	39789.0	-3145.0	-5642783.0
16	15	10	41	733	112.0	59844.0	-4124.0	-5641906.0
16	15	10	41	733	113.0	76628.0	-2207.0	-5641841.0
16	15	10	41	733	114.0	100827.0	-777.0	-5643230.0
16	15	10	41	733	115.0	123568.0	67.0	-5642824.0
16	15	10	41	734	116.0	146453.0	-284.0	-5641996.0
16	15	10	41	734	117.0	160089.0	-324.0	-5641424.0
16	15	10	41	734	118.0	156401.0	-2243.0	-5642730.0
16	15	10	41	735	119.0	140077.0	-4408.0	-5642879.0
16	15	10	41	735	120.0	135281.0	-4164.0	-5642095.0
16	15	10	41	735	121.0	129223.0	-1242.0	-5641630.0
16	15	10	41	735	122.0	121218.0	-250.0	-5643007.0
16	15	10	41	736	123.0	129328.0	-636.0	-5642887.0
16	15	10	41	736	124.0	146637.0	-316.0	-5642115.0
16	15	10	41	736	125.0	161568.0	-213.0	-5641963.0
16	15	10	41	737	126.0	162153.0	-2202.0	-5642684.0
16	15	10	41	737	127.0	160078.0	-2742.0	-5642072.0
16	15	10	41	737	128.0	152080.0	-564.0	-5641517.0
16	15	10	41	738	129.0	139213.0	1066.0	-5642612.0
16	15	10	41	738	130.0	122709.0	1289.0	-5642715.0
16	15	10	41	738	131.0	103748.0	1574.0	-5641857.0
16	15	10	41	739	132.0	104234.0	1796.0	-5641386.0
16	15	10	41	739	133.0	111471.0	523.0	-5642712.0
16	15	10	41	739	134.0	113953.0	-746.0	-5642966.0
16	15	10	41	740	135.0	115761.0	623.0	-5642096.0
16	15	10	41	740	136.0	117833.0	3928.0	-5641562.0
16	15	10	41	740	137.0	125794.0	6124.0	-5642736.0
16	15	10	41	741	138.0	136968.0	6581.0	-5643132.0
16	15	10	41	742	139.0	135496.0	7431.0	-5642305.0
16	15	10	41	743	140.0	124773.0	8075.0	-5642026.0
16	15	10	41	743	141.0	111361.0	6579.0	-5643179.0
16	15	10	41	743	142.0	87354.0	6926.0	-5642982.0
16	15	10	41	744	143.0	59413.0	10647.0	-5642092.0
16	15	10	41	744	144.0	34231.0	12981.0	-5641951.0
16	15	10	41	744	145.0	14961.0	14783.0	-5643286.0
16	15	10	41	745	146.0	-6433.0	16453.0	-5643011.0
16	15	10	41	745	147.0	-22045.0	17808.0	-5642101.0
16	15	10	41	745	148.0	-35213.0	17371.0	-5641501.0
16	15	10	41	746	149.0	-43479.0	17061.0	-5642488.0
16	15	10	41	746	150.0	-47944.0	19172.0	-5642714.0
16	15	10	41	746	151.0	-49437.0	23231.0	-5641860.0
16	15	10	41	747	152.0	-42136.0	25784.0	-5641798.0
16	15	10	41	747	153.0	-22754.0	27458.0	-5643187.0
16	15	10	41	747	154.0	-2202.0	28988.0	-5642812.0
16	15	10	41	747	155.0	14279.0	30370.0	-5641995.0
16	15	10	41	748	156.0	34980.0	29590.0	-5641875.0
16	15	10	41	748	157.0	55623.0	32324.0	-5643359.0
16	15	10	41	748	158.0	64749.0	34854.0	-5643058.0
16	15	10	41	749	159.0	72582.0	36218.0	-5642250.0
16	15	10	41	749	160.0	81047.0	37361.0	-5641874.0
16	15	10	41	749	161.0	94258.0	38485.0	-5643081.0
16	15	10	41	749	162.0	111313.0	39439.0	-5642806.0
16	15	10	41	750	163.0	117644.0	38273.0	-5641979.0
16	15	10	41	750	164.0	127909.0	37188.0	-5642156.0
16	15	10	41	883	165.0	136201.0	37615.0	-5643634.0
16	15	10	41	884	166.0	146624.0	38322.0	-5643084.0
16	15	10	41	884	167.0	154740.0	41026.0	-5642307.0
16	15	10	41	885	168.0	162298.0	42667.0	-5641866.0
16	15	10	41	885	169.0	169523.0	42806.0	-5643443.0
16	15	10	41	885	170.0	163851.0	42244.0	-5643353.0
16	15	10	41	886	171.0	146618.0	39393.0	-5642621.0
16	15	10	41	886	172.0	102823.0	39163.0	-5642454.0
16	15	10	41	886	173.0	57741.0	41484.0	-5643461.0
16	15	10	41	886	174.0	-5239.0	41301.0	-5642922.0
16	15	10	41	887	175.0	-80981.0	40833.0	-5642292.0
16	15	10	41	887	176.0	-159096.0	40224.0	-5643269.0
16	15	10	41	887	177.0	-283047.0	39274.0	-5643497.0
16	15	10	41	888	178.0	-568054.0	36914.0	-5642634.0
16	15	10	41	888	179.0	-956835.0	34128.0	-5641992.0
16	15	10	41	888	180.0	-887561.0	33796.0	-5643095.0
16	15	10	41	889	181.0	-179334.0	35486.0	-5643719.0
16	15	10	41	889	182.0	489817.0	34814.0	-5642916.0
16	15	10	41	889	183.0	644174.0	34093.0	-5642380.0
16	15	10	41	890	184.0	493711.0	33359.0	-5643317.0
16	15	10	41	890	185.0	394203.0	31663.0	-5643568.0
16	15	10	41	890	186.0	287803.0	28102.0	-5642694.0
16	15	10	41	891	187.0	152333.0	26939.0	-5642246.0
16	15	10	41	891	188.0	44486.0	27924.0	-5643498.0
16	15	10	41	892	189.0	-67676.0	27801.0	-5643589.0
16	15	10	41	892	190.0	-154072.0	26539.0	-5642709.0
16	15	10	41	892	191.0	-191845.0	24999.0	-5642381.0
16	15	10	41	892	192.0	-196697.0	23721.0	-5643774.0
16	15	10	41	893	193.0	-205266.0	21029.0	-5643764.0
16	15	10	41	893	194.0	-184879.0	18440.0	-5642869.0
16	15	10	41	894	195.0	-151342.0	17964.0	-5642296.0
16	15	10	41	894	196.0	-144522.0	19424.0	-5643295.0
16	15	10	41	894	197.0	-140801.0	19073.0	-5643584.0
16	15	10	41	895	198.0	-163051.0	18051.0	-5642745.0
16	15	10	41	895	199.0	-212376.0	16851.0	-5642163.0
16	15	10	41	895	200.0	-292269.0	14168.0	-5643249.0
16	15	10	41	896	201.0	-365929.0	10268.0	-5643540.0
16	15	10	41	896	202.0	-341761.0	8711.0	-5642706.0
16	15	10	41	896	203.0	-237593.0	10105.0	-5642453.0
16	15	10	41	897	204.0	-117247.0	10144.0	-5643894.0
16	15	10	41	897	205.0	-42687.0	9829.0	-5643737.0
16	15	10	41	898	206.0	1649.0	8926.0	-5642876.0
16	15	10	41	898	207.0	39774.0	7949.0	-5642583.0
16	15	10	41	898	208.0	62716.0	7064.0	-5643721.0
16	15	10	41	899	209.0	80359.0	6458.0	-5643342.0
16	15	10	41	899	210.0	103583.0	5115.0	-5642482.0
16	15	10	41	899	211.0	154228.0	4242.0	-5642323.0
16	15	10	41	900	212.0	200498.0	3854.0	-5643679.0
16	15	10	41	900	213.0	235406.0	2878.0	-5643231.0
16	15	10	41	900	214.0	253918.0	1817.0	-5642494.0
16	15	10	41	901	215.0	257544.0	-146.0	-5642340.0
16	15	10	41	901	216.0	257321.0	-3114.0	-5643630.0
16	15	10	41	902	217.0	249609.0	-4408.0	-5643162.0
16	15	10	41	902	218.0	262893.0	-5437.0	-5642409.0
16	15	10	41	903	219.0	274369.0	-5714.0	-5642229.0
16	15	10	41	903	220.0	273734.0	-6076.0	-5643119.0
16	15	10	41	903	221.0	265339.0	-6069.0	-5642554.0
16	15	10	41	904	222.0	252365.0	-3961.0	-5642251.0
16	15	10	41	905	223.0	242507.0	-5857.0	-5643570.0
16	15	10	41	905	224.0	222916.0	-5382.0	-5643369.0
16	15	10	41	906	225.0	222765.0	-4821.0	-5642542.0
16	15	10	41	906	226.0	223062.0	-5292.0	-5641974.0
16	15	10	41	906	227.0	217039.0	-5983.0	-5643072.0
16	15	10	41	907	228.0	200034.0	-6471.0	-5643437.0
16	15	10	41	907	229.0	184494.0	-7397.0	-5642580.0
16	15	10	41	908	230.0	173419.0	-9063.0	-5642104.0
16	15	10	41	909	231.0	142809.0	-12310.0	-5643114.0
16	15	10	41	909	232.0	116366.0	-13521.0	-5643216.0
16	15	10	41	909	233.0	95913.0	-13118.0	-5642330.0
16	15	10	41	910	234.0	77769.0	-10729.0	-5641986.0
16	15	10	41	910	235.0	61934.0	-10443.0	-5643194.0
16	15	10	41	911	236.0	48401.0	-10773.0	-5643147.0
16	15	10	41	911	237.0	43749.0	-10821.0	-5642277.0
16	15	10	41	911	238.0	42440.0	-12842.0	-5642147.0
16	15	10	41	912	239.0	45113.0	-14401.0	-5643487.0
16	15	10	41	912	240.0	48694.0	-12997.0	-5643211.0
16	15	10	41	913	241.0	50044.0	-11794.0	-5642302.0
16	15	10	41	913	242.0	49479.0	-11549.0	-5642374.0
16	15	10	41	913	243.0	43864.0	-11760.0	-5643603.0
16	15	10	41	914	244.0	40715.0	-12269.0	-5643144.0
16	15	10	41	914	245.0	40303.0	-13379.0	-5642268.0
16	15	10	41	914	246.0	34201.0	-15948.0	-5641907.0
16	15	10	42	22	247.0	27382.0	-16532.0	-5643279.0
16	15	10	42	22	248.0	23036.0	-15217.0	-5643232.0
16	15	10	42	23	249.0	14430.0	-12951.0	-5642371.0
16	15	10	42	23	250.0	11174.0	-12781.0	-5642074.0
16	15	10	42	23	251.0	12033.0	-12952.0	-5643593.0
16	15	10	42	23	252.0	6425.0	-13418.0	-5643444.0
16	15	10	42	24	253.0	8127.0	-15494.0	-5642604.0
16	15	10	42	24	254.0	22844.0	-16437.0	-5642684.0
16	15	10	42	24	255.0	45388.0	-13776.0	-5644074.0
16	15	10	42	24	0.0	57764.0	-12098.0	-5643579.0
16	15	10	42	25	1.0	64872.0	-12083.0	-5642759.0
16	15	10	42	25	2.0	62130.0	-11901.0	-5642458.0
16	15	10	42	25	3.0	63334.0	-12008.0	-5643696.0
16	15	10	42	25	4.0	67223.0	-12989.0	-5643327.0
16	15	10	42	26	5.0	66266.0	-15262.0	-5642551.0
16	15	10	42	26	6.0	67855.0	-15644.0	-5642295.0
16	15	10	42	26	7.0	70376.0	-13904.0	-5643096.0
16	15	10	42	26	8.0	60791.0	-11555.0	-5642514.0
16	15	10	42	27	9.0	50785.0	-10435.0	-5642211.0
16	15	10	42	27	10.0	37861.0	-9901.0	-5643582.0
16	15	10	42	27	11.0	25636.0	-10059.0	-5643406.0
16	15	10	42	27	12.0	8931.0	-12079.0	-5642597.0
16	15	10	42	28	13.0	-6596.0	-12705.0	-5642441.0
16	15	10	42	28	14.0	-23282.0	-10745.0	-5643900.0
16	15	10	42	28	15.0	-39036.0	-9267.0	-5643616.0
16	15	10	42	28	16.0	-52459.0	-8679.0	-5642739.0
16	15	10	42	29	17.0	-64258.0	-8240.0	-5642947.0
16	15	10	42	29	18.0	-70067.0	-8292.0	-5644193.0
16	15	10	42	29	19.0	-65776.0	-9884.0	-5643648.0
16	15	10	42	29	20.0	-52403.0	-11804.0	-5642726.0
16	15	10	42	30	21.0	-38321.0	-11596.0	-5642342.0
16	15	10	42	30	22.0	-30551.0	-9711.0	-5643461.0
16	15	10	42	30	23.0	-27395.0	-7111.0	-5643346.0
16	15	10	42	30	24.0	-36118.0	-5552.0	-5642472.0
16	15	10	42	31	25.0	-60103.0	-5354.0	-5642659.0
16	15	10	42	31	26.0	-95367.0	-5566.0	-5643764.0
16	15	10	42	31	27.0	-125016.0	-7539.0	-5643270.0
16	15	10	42	31	28.0	-147873.0	-8211.0	-5642463.0
16	15	10	42	32	29.0	-166079.0	-5364.0	-5643345.0
16	15	10	42	32	30.0	-177075.0	-3752.0	-5644301.0
16	15	10	42	32	31.0	-182876.0	-3471.0	-5643624.0
16	15	10	42	32	32.0	-190141.0	-2751.0	-5642755.0
16	15	10	42	33	33.0	-194401.0	-2601.0	-5643227.0
16	15	10	42	33	34.0	-194741.0	-3824.0	-5644239.0
16	15	10	42	33	35.0	-191169.0	-6202.0	-5643605.0
16	15	10	42	33	36.0	-181150.0	-6308.0	-5642742.0
16	15	10	42	34	37.0	-169557.0	-4623.0	-5642823.0
16	15	10	42	34	38.0	-160257.0	-2185.0	-5643892.0
16	15	10	42	34	39.0	-140094.0	-1685.0	-5643349.0
16	15	10	42	34	40.0	-115289.0	-1054.0	-5642534.0
16	15	10	42	35	41.0	-82290.0	-1438.0	-5642736.0
16	15	10	42	35	42.0	-49967.0	-3814.0	-5644004.0
16	15	10	42	35	43.0	-11232.0	-4835.0	-5643487.0
16	15	10	42	36	44.0	23201.0	-2391.0	-5642694.0
16	15	10	42	36	45.0	66649.0	-1273.0	-5643204.0
16	15	10	42	36	46.0	114147.0	-692.0	-5643609.0
16	15	10	42	36	47.0	162700.0	23.0	-5642878.0
16	15	10	42	37	48.0	209749.0	663.0	-5642917.0
16	15	10	42	37	49.0	258626.0	-1188.0	-5644087.0
16	15	10	42	169	50.0	277017.0	-3471.0	-5643469.0
16	15	10	42	169	51.0	281801.0	-3397.0	-5642637.0
16	15	10	42	170	52.0	280743.0	-1214.0	-5642474.0
16	15	10	42	170	53.0	284333.0	-268.0	-5643687.0
16	15	10	42	170	54.0	282099.0	-159.0	-5643214.0
16	15	10	42	170	55.0	277608.0	279.0	-5642387.0
16	15	10	42	171	56.0	261933.0	96.0	-5642715.0
16	15	10	42	171	57.0	224834.0	-2.0	-5643892.0
16	15	10	42	171	58.0	179433.0	247.0	-5643302.0
16	15	10	42	172	59.0	145872.0	-244.0	-5642482.0
16	15	10	42	172	60.0	142788.0	485.0	-5642877.0
16	15	10	42	172	61.0	112288.0	321.0	-5644159.0
16	15	10	42	172	62.0	-178792.0	-75.0	-5643567.0
16	15	10	42	173	63.0	-677677.0	-229.0	-5642694.0
16	15	10	42	173	64.0	-1014765.0	-1427.0	-5642755.0
16	15	10	42	173	65.0	-1048254.0	-3647.0	-5644010.0
16	15	10	42	173	66.0	-830324.0	-3830.0	-5643574.0
16	15	10	42	174	67.0	-495115.0	-2059.0	-5642694.0
16	15	10	42	174	68.0	-135742.0	-633.0	-5642594.0
16	15	10	42	174	69.0	152318.0	18.0	-5643672.0
16	15	10	42	175	70.0	286706.0	-209.0	-5643312.0
16	15	10	42	175	71.0	287076.0	-957.0	-5642454.0
16	15	10	42	176	72.0	281956.0	-3314.0	-5642491.0
16	15	10	42	176	73.0	365915.0	-4466.0	-5643633.0
16	15	10	42	176	74.0	449566.0	-4192.0	-5643185.0
16	15	10	42	177	75.0	317388.0	-1919.0	-5642323.0
16	15	10	42	177	76.0	59094.0	-583.0	-5642796.0
16	15	10	42	177	77.0	-139082.0	-144.0	-5643487.0
16	15	10	42	178	78.0	-226129.0	-131.0	-5642802.0
16	15	10	42	178	79.0	-194484.0	-2071.0	-5641992.0
16	15	10	42	178	80.0	-61706.0	-4656.0	-5642889.0
16	15	10	42	179	81.0	77026.0	-5238.0	-5643548.0
16	15	10	42	179	82.0	146811.0	-5408.0	-5642837.0
16	15	10	42	180	83.0	127834.0	-5523.0	-5641954.0
16	15	10	42	180	84.0	17871.0	-5859.0	-5642262.0
16	15	10	42	180	85.0	-103872.0	-5011.0	-5643125.0
16	15	10	42	181	86.0	-153336.0	-2313.0	-5642491.0
16	15	10	42	181	87.0	-111364.0	-3329.0	-5641731.0
16	15	10	42	182	88.0	-43382.0	-1595.0	-5642169.0
16	15	10	42	182	89.0	7666.0	-1245.0	-5642317.0
16	15	10	42	182	90.0	17866.0	-1082.0	-5641692.0
16	15	10	42	183	91.0	-6358.0	-700.0	-5642522.0
16	15	10	42	183	92.0	-83209.0	-678.0	-5643301.0
16	15	10	42	184	93.0	-169385.0	-1094.0	-5642476.0
16	15	10	42	184	94.0	-229782.0	-2501.0	-5641796.0
16	15	10	42	184	95.0	-258631.0	-4742.0	-5642422.0
16	15	10	42	185	96.0	-283506.0	-5344.0	-5643046.0
16	15	10	42	185	97.0	-297655.0	-4940.0	-5642218.0
16	15	10	42	185	98.0	-289158.0	-2258.0	-5641510.0
16	15	10	42	186	99.0	-279256.0	-1121.0	-5641932.0
16	15	10	42	186	100.0	-268200.0	-734.0	-5642773.0
16	15	10	42	187	101.0	-258676.0	-1086.0	-5642040.0
16	15	10	42	187	102.0	-262296.0	-3799.0	-5641346.0
16	15	10	42	187	103.0	-287654.0	-4208.0	-5642190.0
16	15	10	42	188	104.0	-305116.0	-1498.0	-5642906.0
16	15	10	42	188	105.0	-301368.0	-977.0	-5642142.0
16	15	10	42	189	106.0	-278319.0	-853.0	-5641592.0
16	15	10	42	189	107.0	-266763.0	-1378.0	-5642836.0
16	15	10	42	189	108.0	-248818.0	-1306.0	-5642963.0
16	15	10	42	190	109.0	-238546.0	-2292.0	-5642131.0
16	15	10	42	190	110.0	-217199.0	-4295.0	-5641446.0
16	15	10	42	191	111.0	-192909.0	-4199.0	-5642234.0
16	15	10	42	191	112.0	-153932.0	-1677.0	-5642431.0
16	15	10	42	192	113.0	-111902.0	-554.0	-5641650.0
16	15	10	42	192	114.0	-75057.0	-462.0	-5641004.0
16	15	10	42	192	115.0	-36402.0	-1037.0	-5642040.0
16	15	10	42	193	116.0	7003.0	-1996.0	-5642221.0
16	15	10	42	193	117.0	52596.0	-4112.0	-5641491.0
16	15	10	42	194	118.0	93525.0	-5173.0	-5640763.0
16	15	10	42	194	119.0	131759.0	-3826.0	-5641812.0
16	15	10	42	194	120.0	148194.0	-1015.0	-5642326.0
16	15	10	42	195	121.0	152513.0	-127.0	-5641577.0
16	15	10	42	195	122.0	150413.0	-306.0	-5641101.0
16	15	10	42	196	123.0	145844.0	25.0	-5642541.0
16	15	10	42	196	124.0	141943.0	-1778.0	-5642422.0
16	15	10	42	196	125.0	125929.0	-4027.0	-5641668.0
16	15	10	42	197	126.0	116684.0	-3224.0	-5641241.0
16	15	10	42	197	127.0	105231.0	-299.0	-5642132.0
16	15	10	42	198	128.0	106191.0	586.0	-5641682.0
16	15	10	42	198	129.0	105979.0	693.0	-5641181.0
16	15	10	42	198	130.0	110139.0	-31.0	-5642279.0
16	15	10	42	199	131.0	116671.0	20.0	-5642411.0
16	15	10	42	199	132.0	120356.0	-2023.0	-5641544.0
16	15	10	42	317	133.0	131253.0	-2789.0	-5640939.0
16	15	10	42	317	134.0	129101.0	-1627.0	-5641899.0
16	15	10	42	317	135.0	135470.0	1206.0	-5642339.0
16	15	10	42	318	136.0	138547.0	2071.0	-5641456.0
16	15	10	42	318	137.0	142603.0	2361.0	-5640958.0
16	15	10	42	318	138.0	132065.0	2372.0	-5642127.0
16	15	10	42	319	139.0	130768.0	1138.0	-5642346.0
16	15	10	42	319	140.0	140560.0	-73.0	-5641492.0
16	15	10	42	319	141.0	132067.0	1854.0	-5641252.0
16	15	10	42	319	142.0	133984.0	5153.0	-5642601.0
16	15	10	42	320	143.0	129944.0	5974.0	-5642434.0
16	15	10	42	320	144.0	141079.0	6618.0	-5641539.0
16	15	10	42	320	145.0	138882.0	8109.0	-5641592.0
16	15	10	42	320	146.0	142113.0	8884.0	-5642812.0
16	15	10	42	321	147.0	152436.0	7169.0	-5642326.0
16	15	10	42	321	148.0	147557.0	7541.0	-5641468.0
16	15	10	42	321	149.0	141485.0	10251.0	-5641057.0
16	15	10	42	322	150.0	129988.0	13889.0	-5642327.0
16	15	10	42	322	151.0	113781.0	16008.0	-5642211.0
16	15	10	42	322	152.0	99147.0	17961.0	-5641375.0
16	15	10	42	323	153.0	81706.0	19539.0	-5641123.0
16	15	10	42	323	154.0	69459.0	18781.0	-5642331.0
16	15	10	42	323	155.0	56157.0	17995.0	-5641977.0
16	15	10	42	323	156.0	46720.0	20459.0	-5641176.0
16	15	10	42	324	157.0	37632.0	24269.0	-5641294.0
16	15	10	42	324	158.0	42330.0	25493.0	-5642481.0
16	15	10	42	324	159.0	38773.0	27389.0	-5641919.0
16	15	10	42	325	160.0	28929.0	29061.0	-5641157.0
16	15	10	42	325	161.0	34628.0	29824.0	-5641208.0
16	15	10	42	325	162.0	33819.0	28816.0	-5642023.0
16	15	10	42	326	163.0	31804.0	29721.0	-5641343.0
16	15	10	42	326	164.0	33577.0	33406.0	-5640958.0
16	15	10	42	326	165.0	21791.0	36154.0	-5642385.0
16	15	10	42	326	166.0	13600.0	36792.0	-5642326.0
16	15	10	42	327	167.0	8545.0	38157.0	-5641466.0
16	15	10	42	327	168.0	12333.0	39366.0	-5641159.0
16	15	10	42	327	169.0	25883.0	38643.0	-5642328.0
16	15	10	42	327	170.0	45470.0	37044.0	-5642102.0
16	15	10	42	328	171.0	73618.0	37540.0	-5641282.0
16	15	10	42	328	172.0	99951.0	40291.0	-5641343.0
16	15	10	42	328	173.0	127226.0	41949.0	-5642581.0
16	15	10	42	329	174.0	161068.0	42035.0	-5642117.0
16	15	10	42	329	175.0	196678.0	42254.0	-5641284.0
16	15	10	42	329	176.0	211329.0	41853.0	-5641834.0
16	15	10	42	329	177.0	199265.0	39007.0	-5642622.0
16	15	10	42	330	178.0	167094.0	38523.0	-5641964.0
16	15	10	42	330	179.0	109101.0	40802.0	-5641032.0
16	15	10	42	330	180.0	25617.0	42021.0	-5641356.0
16	15	10	42	331	181.0	-76013.0	41359.0	-5642447.0
16	15	10	42	332	182.0	-168852.0	40771.0	-5641894.0
16	15	10	42	332	183.0	-304472.0	40271.0	-5641032.0
16	15	10	42	332	184.0	-635827.0	37437.0	-5641661.0
16	15	10	42	333	185.0	-977520.0	35040.0	-5642569.0
16	15	10	42	333	186.0	-758207.0	34978.0	-5641956.0
16	15	10	42	333	187.0	-51437.0	36667.0	-5641233.0
16	15	10	42	334	188.0	448068.0	37286.0	-5641845.0
16	15	10	42	334	189.0	544718.0	35908.0	-5642407.0
16	15	10	42	334	190.0	423474.0	34268.0	-5641724.0
16	15	10	42	334	191.0	298186.0	32991.0	-5640936.0
16	15	10	42	335	192.0	186826.0	29618.0	-5641679.0
16	15	10	42	335	193.0	78829.0	27910.0	-5642196.0
16	15	10	42	335	194.0	-22556.0	28822.0	-5641442.0
16	15	10	42	336	195.0	-126434.0	28861.0	-5640627.0
16	15	10	42	336	196.0	-197376.0	27601.0	-5641070.0
16	15	10	42	336	197.0	-239436.0	26310.0	-5641212.0
16	15	10	42	336	198.0	-258205.0	25578.0	-5640510.0
16	15	10	42	337	199.0	-245070.0	22770.0	-5641019.0
16	15	10	42	337	200.0	-205312.0	19625.0	-5642245.0
16	15	10	42	337	201.0	-167949.0	18781.0	-5641569.0
16	15	10	42	338	202.0	-153452.0	19864.0	-5640826.0
16	15	10	42	453	203.0	-153856.0	19047.0	-5641368.0
16	15	10	42	453	204.0	-172144.0	18331.0	-5642297.0
16	15	10	42	454	205.0	-226426.0	16836.0	-5641577.0
16	15	10	42	454	206.0	-288846.0	15392.0	-5640841.0
16	15	10	42	454	207.0	-320126.0	12071.0	-5641524.0
16	15	10	42	455	208.0	-270084.0	13034.0	-5642354.0
16	15	10	42	455	209.0	-178469.0	12622.0	-5641627.0
16	15	10	42	455	210.0	-102002.0	11729.0	-5640834.0
16	15	10	42	455	211.0	-61364.0	10602.0	-5641127.0
16	15	10	42	456	212.0	-46151.0	9279.0	-5642321.0
16	15	10	42	456	213.0	-39234.0	8229.0	-5641734.0
16	15	10	42	456	214.0	-34318.0	5241.0	-5640900.0
16	15	10	42	457	215.0	-18663.0	2206.0	-5641283.0
16	15	10	42	457	216.0	18447.0	762.0	-5642172.0
16	15	10	42	457	217.0	64043.0	-12.0	-5641567.0
16	15	10	42	458	218.0	110078.0	-193.0	-5640782.0
16	15	10	42	458	219.0	155755.0	1970.0	-5641487.0
16	15	10	42	458	220.0	192805.0	1549.0	-5642231.0
16	15	10	42	459	221.0	217623.0	-50.0	-5641559.0
16	15	10	42	459	222.0	234990.0	-2960.0	-5640849.0
16	15	10	42	459	223.0	251063.0	-2124.0	-5641847.0
16	15	10	42	460	224.0	266474.0	-1519.0	-5642122.0
16	15	10	42	460	225.0	272911.0	-1599.0	-5641389.0
16	15	10	42	460	226.0	269261.0	-1994.0	-5640530.0
16	15	10	42	461	227.0	257784.0	-3159.0	-5640921.0
16	15	10	42	461	228.0	248294.0	-4349.0	-5641787.0
16	15	10	42	462	229.0	234214.0	-6489.0	-5641207.0
16	15	10	42	462	230.0	215868.0	-8880.0	-5640354.0
16	15	10	42	462	231.0	201163.0	-9620.0	-5640557.0
16	15	10	42	463	232.0	185011.0	-9081.0	-5641687.0
16	15	10	42	463	233.0	158416.0	-7279.0	-5641175.0
16	15	10	42	464	234.0	131235.0	-7882.0	-5640442.0
16	15	10	42	464	235.0	114797.0	-7938.0	-5641436.0
16	15	10	42	465	236.0	101108.0	-9684.0	-5641958.0
16	15	10	42	465	237.0	81069.0	-12908.0	-5641235.0
16	15	10	42	466	238.0	71095.0	-13001.0	-5640521.0
16	15	10	42	466	239.0	61476.0	-10477.0	-5641336.0
16	15	10	42	467	240.0	54964.0	-10607.0	-5641407.0
16	15	10	42	467	241.0	46333.0	-11593.0	-5640687.0
16	15	10	42	467	242.0	39199.0	-12425.0	-5640694.0
16	15	10	42	468	243.0	35834.0	-12748.0	-5641806.0
16	15	10	42	468	244.0	33443.0	-14946.0	-5641173.0
16	15	10	42	469	245.0	30787.0	-16844.0	-5640431.0
16	15	10	42	469	246.0	25783.0	-16527.0	-5640752.0
16	15	10	42	469	247.0	23092.0	-13936.0	-5641731.0
16	15	10	42	470	248.0	31655.0	-13907.0	-5641012.0
16	15	10	42	470	249.0	37368.0	-14135.0	-5640273.0
16	15	10	42	470	250.0	36818.0	-13821.0	-5640714.0
16	15	10	42	470	251.0	26883.0	-14941.0	-5641572.0
16	15	10	42	471	252.0	15329.0	-18453.0	-5640837.0
16	15	10	42	471	253.0	8182.0	-18669.0	-5640224.0
16	15	10	42	472	254.0	8729.0	-15932.0	-5641169.0
16	15	10	42	472	255.0	9686.0	-14984.0	-5641541.0
16	15	10	42	472	0.0	4425.0	-15213.0	-5640726.0
16	15	10	42	473	1.0	-2117.0	-15081.0	-5640107.0
16	15	10	42	473	2.0	-489.0	-14972.0	-5641163.0
16	15	10	42	473	3.0	7451.0	-14934.0	-5641377.0
16	15	10	42	474	4.0	17154.0	-14219.0	-5640607.0
16	15	10	42	474	5.0	30358.0	-14377.0	-5639939.0
16	15	10	42	474	6.0	45813.0	-14154.0	-5640936.0
16	15	10	42	475	7.0	59141.0	-13995.0	-5641245.0
16	15	10	42	475	8.0	72860.0	-13749.0	-5640504.0
16	15	10	42	475	9.0	88010.0	-13640.0	-5639911.0
16	15	10	42	475	10.0	100665.0	-14697.0	-5641158.0
16	15	10	42	476	11.0	100724.0	-17011.0	-5641276.0
16	15	10	42	476	12.0	91459.0	-16945.0	-5640505.0
16	15	10	42	476	13.0	80326.0	-16658.0	-5639978.0
16	15	10	42	477	14.0	69611.0	-16262.0	-5641416.0
16	15	10	42	477	15.0	61774.0	-15946.0	-5641419.0
16	15	10	42	477	16.0	53681.0	-15314.0	-5640661.0
16	15	10	42	590	17.0	40471.0	-12827.0	-5640105.0
16	15	10	42	590	18.0	22959.0	-13157.0	-5640842.0
16	15	10	42	591	19.0	2531.0	-11146.0	-5640358.0
16	15	10	42	591	20.0	-14974.0	-10391.0	-5639837.0
16	15	10	42	591	21.0	-29416.0	-10071.0	-5640953.0
16	15	10	42	592	22.0	-35028.0	-9432.0	-5641134.0
16	15	10	42	592	23.0	-25554.0	-8112.0	-5640261.0
16	15	10	42	592	24.0	-17511.0	-7907.0	-5639737.0
16	15	10	42	593	25.0	-12655.0	-8875.0	-5640694.0
16	15	10	42	593	26.0	702.0	-10893.0	-5640813.0
16	15	10	42	593	27.0	15957.0	-11188.0	-5639994.0
16	15	10	42	593	28.0	26678.0	-10093.0	-5639943.0
16	15	10	42	594	29.0	26409.0	-7292.0	-5641261.0
16	15	10	42	594	30.0	16699.0	-6624.0	-5640949.0
16	15	10	42	594	31.0	-5611.0	-5675.0	-5640087.0
16	15	10	42	595	32.0	-25517.0	-5163.0	-5639926.0
16	15	10	42	595	33.0	-36627.0	-7487.0	-5641245.0
16	15	10	42	595	34.0	-40340.0	-8517.0	-5641000.0
16	15	10	42	596	35.0	-39243.0	-5917.0	-5640074.0
16	15	10	42	596	36.0	-49851.0	-3775.0	-5639482.0
16	15	10	42	596	37.0	-63280.0	-3532.0	-5640602.0
16	15	10	42	596	38.0	-76183.0	-3420.0	-5640917.0
16	15	10	42	597	39.0	-90640.0	-3259.0	-5640066.0
16	15	10	42	597	40.0	-105669.0	-3991.0	-5639658.0
16	15	10	42	597	41.0	-110989.0	-5971.0	-5640888.0
16	15	10	42	598	42.0	-107364.0	-5804.0	-5640798.0
16	15	10	42	598	43.0	-110539.0	-4281.0	-5639993.0
16	15	10	42	598	44.0	-107396.0	-1395.0	-5639731.0
16	15	10	42	599	45.0	-103821.0	-519.0	-5641174.0
16	15	10	42	599	46.0	-105414.0	-245.0	-5640994.0
16	15	10	42	599	47.0	-93284.0	-225.0	-5640141.0
16	15	10	42	600	48.0	-69731.0	-2108.0	-5640076.0
16	15	10	42	600	49.0	-45692.0	-3443.0	-5641174.0
16	15	10	42	600	50.0	-30427.0	-979.0	-5640624.0
16	15	10	42	601	51.0	-13492.0	634.0	-5639790.0
16	15	10	42	601	52.0	7639.0	1105.0	-5639451.0
16	15	10	42	601	53.0	21968.0	957.0	-5640872.0
16	15	10	42	602	54.0	23125.0	798.0	-5640633.0
16	15	10	42	602	55.0	22134.0	78.0	-5639856.0
16	15	10	42	603	56.0	29454.0	-2314.0	-5639301.0
16	15	10	42	603	57.0	46657.0	-3008.0	-5640509.0
16	15	10	42	603	58.0	70527.0	-1949.0	-5640409.0
16	15	10	42	604	59.0	88196.0	641.0	-5639659.0
16	15	10	42	604	60.0	92873.0	757.0	-5639962.0
16	15	10	42	605	61.0	93073.0	866.0	-5641283.0
16	15	10	42	605	62.0	100718.0	-87.0	-5640675.0
16	15	10	42	605	63.0	117163.0	-2410.0	-5639962.0
16	15	10	42	606	64.0	141988.0	-3215.0	-5639829.0
16	15	10	42	606	65.0	141614.0	-735.0	-5641278.0
16	15	10	42	606	66.0	101334.0	169.0	-5640829.0
16	15	10	42	607	67.0	65549.0	49.0	-5640049.0
16	15	10	42	607	68.0	59671.0	489.0	-5640104.0
16	15	10	42	608	69.0	-13907.0	181.0	-5641394.0
16	15	10	42	608	70.0	-423753.0	-1122.0	-5640752.0
16	15	10	42	608	71.0	-1024789.0	-3563.0	-5639923.0
16	15	10	42	609	72.0	-1320379.0	-3800.0	-5639965.0
16	15	10	42	609	73.0	-1194459.0	-2262.0	-5641207.0
16	15	10	42	610	74.0	-841033.0	251.0	-5640655.0
16	15	10	42	610	75.0	-395792.0	467.0	-5640006.0
16	15	10	42	610	76.0	8911.0	283.0	-5640514.0
16	15	10	42	611	77.0	221784.0	71.0	-5641440.0
16	15	10	42	611	78.0	268798.0	-2351.0	-5640692.0
16	15	10	42	612	79.0	323188.0	-3399.0	-5640026.0
16	15	10	42	612	80.0	361613.0	-1451.0	-5640751.0
16	15	10	42	613	81.0	336819.0	-605.0	-5641444.0
16	15	10	42	613	82.0	331358.0	-294.0	-5640640.0
16	15	10	42	613	83.0	246805.0	-501.0	-5639832.0
16	15	10	42	614	84.0	18787.0	-147.0	-5640026.0
16	15	10	42	614	85.0	-163210.0	-1269.0	-5641052.0
16	15	10	42	614	86.0	-210216.0	-3614.0	-5640404.0
16	15	10	42	717	87.0	-159764.0	-4085.0	-5639647.0
16	15	10	42	717	88.0	-60899.0	-2702.0	-5640365.0
16	15	10	42	717	89.0	47039.0	-787.0	-5641177.0
16	15	10	42	718	90.0	145203.0	-30.0	-5640449.0
16	15	10	42	718	91.0	194303.0	189.0	-5639916.0
16	15	10	42	718	92.0	153361.0	-57.0	-5641224.0
16	15	10	42	718	93.0	66415.0	-2272.0	-5641405.0
16	15	10	42	718	94.0	19973.0	-3199.0	-5640596.0
16	15	10	42	718	95.0	24349.0	-788.0	-5639926.0
16	15	10	42	719	96.0	41498.0	283.0	-5640895.0
16	15	10	42	719	97.0	25566.0	668.0	-5641213.0
16	15	10	42	719	98.0	-19614.0	744.0	-5640424.0
16	15	10	42	719	99.0	-77955.0	447.0	-5639644.0
16	15	10	42	720	100.0	-149049.0	-326.0	-5640642.0
16	15	10	42	720	101.0	-212160.0	-2668.0	-5641159.0
16	15	10	42	720	102.0	-253205.0	-2958.0	-5640433.0
16	15	10	42	720	103.0	-252792.0	-772.0	-5639611.0
16	15	10	42	720	104.0	-229179.0	1179.0	-5640387.0
16	15	10	42	721	105.0	-210178.0	1024.0	-5641172.0
16	15	10	42	721	106.0	-188626.0	641.0	-5640508.0
16	15	10	42	721	107.0	-157597.0	7.0	-5639846.0
16	15	10	42	722	108.0	-141693.0	-2144.0	-5641002.0
16	15	10	42	722	109.0	-127387.0	-3587.0	-5641192.0
16	15	10	42	722	110.0	-108844.0	-2730.0	-5640473.0
16	15	10	42	722	111.0	-103706.0	10.0	-5639938.0
16	15	10	42	722	112.0	-119454.0	520.0	-5641005.0
16	15	10	42	723	113.0	-136236.0	643.0	-5640816.0
16	15	10	42	723	114.0	-144556.0	337.0	-5640062.0
16	15	10	42	723	115.0	-145478.0	-1367.0	-5640342.0
16	15	10	42	723	116.0	-138409.0	-3692.0	-5641762.0
16	15	10	42	724	117.0	-115478.0	-3367.0	-5641149.0
16	15	10	42	724	118.0	-86489.0	-507.0	-5640436.0
16	15	10	42	724	119.0	-55124.0	-37.0	-5640931.0
16	15	10	42	724	120.0	-31669.0	306.0	-5642248.0
16	15	10	42	725	121.0	-2409.0	616.0	-5641554.0
16	15	10	42	725	122.0	36485.0	171.0	-5640820.0
16	15	10	42	725	123.0	74994.0	-2110.0	-5641115.0
16	15	10	42	725	124.0	105035.0	-3181.0	-5642371.0
16	15	10	42	725	125.0	133947.0	-2093.0	-5641702.0
16	15	10	42	726	126.0	161111.0	325.0	-5640962.0
16	15	10	42	726	127.0	175819.0	282.0	-5641099.0
16	15	10	42	726	128.0	180984.0	268.0	-5642480.0
16	15	10	42	726	129.0	189844.0	622.0	-5641901.0
16	15	10	42	727	130.0	196339.0	-941.0	-5641181.0
16	15	10	42	727	131.0	196066.0	-2992.0	-5641414.0
16	15	10	42	727	132.0	189964.0	-2313.0	-5642624.0
16	15	10	42	727	133.0	176085.0	713.0	-5641989.0
16	15	10	42	728	134.0	159649.0	1459.0	-5641217.0
16	15	10	42	728	135.0	148145.0	1340.0	-5641436.0
16	15	10	42	728	136.0	132650.0	1141.0	-5642867.0
16	15	10	42	728	137.0	119352.0	1133.0	-5642325.0
16	15	10	42	728	138.0	121948.0	-1339.0	-5641568.0
16	15	10	42	830	139.0	136324.0	-2552.0	-5642173.0
16	15	10	42	830	140.0	150323.0	-981.0	-5642867.0
16	15	10	42	831	141.0	164436.0	1496.0	-5642093.0
16	15	10	42	831	142.0	179878.0	2496.0	-5641331.0
16	15	10	42	831	143.0	190794.0	2890.0	-5641976.0
16	15	10	42	831	144.0	213679.0	2949.0	-5642789.0
16	15	10	42	832	145.0	232018.0	2508.0	-5642072.0
16	15	10	42	832	146.0	232888.0	418.0	-5641264.0
16	15	10	42	832	147.0	211153.0	1371.0	-5641889.0
16	15	10	42	832	148.0	211759.0	3924.0	-5642862.0
16	15	10	42	833	149.0	240585.0	5785.0	-5642211.0
16	15	10	42	833	150.0	250312.0	6845.0	-5641365.0
16	15	10	42	833	151.0	243159.0	7737.0	-5641907.0
16	15	10	42	833	152.0	219467.0	8832.0	-5642751.0
16	15	10	42	834	153.0	178119.0	7842.0	-5642114.0
16	15	10	42	834	154.0	134962.0	7777.0	-5641262.0
16	15	10	42	834	155.0	107028.0	10134.0	-5641793.0
16	15	10	42	834	156.0	87055.0	13719.0	-5642562.0
16	15	10	42	835	157.0	76111.0	15414.0	-5641912.0
16	15	10	42	835	158.0	60156.0	16673.0	-5641186.0
16	15	10	42	835	159.0	43973.0	17413.0	-5642086.0
16	15	10	42	835	160.0	31362.0	17470.0	-5642286.0
16	15	10	42	835	161.0	17621.0	17081.0	-5641554.0
16	15	10	42	836	162.0	-1201.0	19232.0	-5640816.0
16	15	10	42	836	163.0	-17062.0	23309.0	-5641775.0
16	15	10	42	836	164.0	-33097.0	25287.0	-5642064.0
16	15	10	42	836	165.0	-46142.0	27419.0	-5641288.0
16	15	10	42	837	166.0	-50834.0	29450.0	-5640567.0
16	15	10	42	837	167.0	-55395.0	30750.0	-5641311.0
16	15	10	42	837	168.0	-65614.0	29768.0	-5641489.0
16	15	10	42	837	169.0	-74784.0	30471.0	-5640801.0
16	15	10	42	838	170.0	-84831.0	32886.0	-5641331.0
16	15	10	42	838	171.0	-74735.0	37059.0	-5642047.0
16	15	10	42	838	172.0	-59121.0	38738.0	-5641235.0
16	15	10	42	838	173.0	-49501.0	40036.0	-5640534.0
16	15	10	42	839	174.0	-37779.0	40340.0	-5641291.0
16	15	10	42	839	175.0	-18972.0	39885.0	-5642028.0
16	15	10	42	839	176.0	1218.0	38791.0	-5641233.0
16	15	10	42	839	177.0	28173.0	40233.0	-5640562.0
16	15	10	42	839	178.0	47653.0	42894.0	-5641408.0
16	15	10	42	840	179.0	61903.0	43405.0	-5642131.0
16	15	10	42	840	180.0	69717.0	44061.0	-5641365.0
16	15	10	42	840	181.0	79508.0	44521.0	-5640623.0
16	15	10	42	840	182.0	94856.0	44019.0	-5641301.0
16	15	10	42	841	183.0	110291.0	41057.0	-5642091.0
16	15	10	42	841	184.0	124508.0	39952.0	-5641376.0
16	15	10	42	841	185.0	137523.0	41547.0	-5640559.0
16	15	10	42	841	186.0	140251.0	43573.0	-5640965.0
16	15	10	42	842	187.0	119466.0	43191.0	-5641914.0
16	15	10	42	842	188.0	75606.0	42033.0	-5641255.0
16	15	10	42	842	189.0	20051.0	41544.0	-5640752.0
16	15	10	42	842	190.0	-41453.0	39494.0	-5642152.0
16	15	10	42	947	191.0	-101817.0	36904.0	-5642187.0
16	15	10	42	947	192.0	-153432.0	36590.0	-5641421.0
16	15	10	42	947	193.0	-225839.0	37818.0	-5640679.0
16	15	10	42	948	194.0	-412129.0	37559.0	-5641636.0
16	15	10	42	948	195.0	-694893.0	36868.0	-5641876.0
16	15	10	42	948	196.0	-809637.0	35920.0	-5641121.0
16	15	10	42	948	197.0	-430819.0	34196.0	-5640370.0
16	15	10	42	949	198.0	190090.0	30491.0	-5641254.0
16	15	10	42	949	199.0	446694.0	28518.0	-5641626.0
16	15	10	42	949	200.0	319878.0	28583.0	-5640891.0
16	15	10	42	949	201.0	177477.0	29764.0	-5640209.0
16	15	10	42	949	202.0	96288.0	28920.0	-5640905.0
16	15	10	42	950	203.0	-624.0	28203.0	-5640774.0
16	15	10	42	950	204.0	-66453.0	26742.0	-5640172.0
16	15	10	42	950	205.0	-136368.0	23603.0	-5641111.0
16	15	10	42	950	206.0	-228574.0	20882.0	-5641562.0
16	15	10	42	950	207.0	-304361.0	20792.0	-5640716.0
16	15	10	42	950	208.0	-369083.0	21939.0	-5640172.0
16	15	10	42	951	209.0	-427344.0	20788.0	-5641333.0
16	15	10	42	951	210.0	-427142.0	19509.0	-5641724.0
16	15	10	42	951	211.0	-337189.0	17802.0	-5640840.0
16	15	10	42	952	212.0	-199378.0	16378.0	-5640237.0
16	15	10	42	952	213.0	-66589.0	12537.0	-5641170.0
16	15	10	42	952	214.0	23420.0	11028.0	-5641605.0
16	15	10	42	952	215.0	72619.0	11747.0	-5640774.0
16	15	10	42	952	216.0	100321.0	11961.0	-5640213.0
16	15	10	42	953	217.0	105013.0	11550.0	-5641189.0
16	15	10	42	953	218.0	103424.0	10198.0	-5641411.0
16	15	10	42	953	219.0	109215.0	8764.0	-5640579.0
16	15	10	42	953	220.0	107210.0	6318.0	-5640446.0
16	15	10	42	954	221.0	95815.0	3221.0	-5641910.0
16	15	10	42	954	222.0	79493.0	2372.0	-5641666.0
16	15	10	42	954	223.0	58276.0	3489.0	-5640831.0
16	15	10	42	954	224.0	31093.0	3531.0	-5640426.0
16	15	10	42	955	225.0	14909.0	2814.0	-5641714.0
16	15	10	42	955	226.0	7008.0	2199.0	-5641599.0
16	15	10	42	955	227.0	20651.0	518.0	-5640743.0
16	15	10	42	955	228.0	51208.0	-2966.0	-5640211.0
16	15	10	42	956	229.0	74219.0	-4279.0	-5641444.0
16	15	10	42	956	230.0	85649.0	-2314.0	-5641407.0
16	15	10	42	956	231.0	109152.0	-1809.0	-5640626.0
16	15	10	42	956	232.0	151549.0	-2544.0	-5640071.0
16	15	10	42	957	233.0	199415.0	-2680.0	-5641326.0
16	15	10	42	957	234.0	240521.0	-3739.0	-5641437.0
16	15	10	42	957	235.0	254741.0	-6366.0	-5640664.0
16	15	10	42	957	236.0	260148.0	-8809.0	-5640237.0
16	15	10	42	958	237.0	251696.0	-9140.0	-5641674.0
16	15	10	42	958	238.0	235076.0	-6824.0	-5641572.0
16	15	10	42	958	239.0	218568.0	-6554.0	-5640797.0
16	15	10	42	958	240.0	209049.0	-7261.0	-5640451.0
16	15	10	42	959	241.0	205481.0	-7883.0	-5641891.0
16	15	10	42	959	242.0	187758.0	-8828.0	-5641621.0
16	15	10	42	959	243.0	156154.0	-11854.0	-5640821.0
16	15	10	42	959	244.0	128446.0	-13016.0	-5640149.0
16	15	10	42	960	245.0	105236.0	-11064.0	-5641463.0
16	15	10	42	960	246.0	84108.0	-10365.0	-5641588.0
16	15	10	42	960	247.0	59879.0	-10972.0	-5640854.0
16	15	10	42	960	248.0	38444.0	-11057.0	-5640217.0
16	15	10	42	961	249.0	25481.0	-11306.0	-5641071.0
16	15	10	42	961	250.0	18022.0	-13870.0	-5640894.0
16	15	10	43	68	251.0	10094.0	-16491.0	-5640357.0
16	15	10	43	68	252.0	5490.0	-16417.0	-5641410.0
16	15	10	43	68	253.0	2048.0	-14202.0	-5641729.0
16	15	10	43	69	254.0	5552.0	-13782.0	-5640881.0
16	15	10	43	69	255.0	19536.0	-14215.0	-5640380.0
16	15	10	43	69	0.0	43052.0	-14267.0	-5641532.0
16	15	10	43	69	1.0	59952.0	-15382.0	-5641710.0
16	15	10	43	70	2.0	73114.0	-17322.0	-5640834.0
16	15	10	43	70	3.0	82316.0	-15658.0	-5640291.0
16	15	10	43	70	4.0	83339.0	-15153.0	-5641366.0
16	15	10	43	70	5.0	80243.0	-15333.0	-5641717.0
16	15	10	43	71	6.0	68644.0	-15481.0	-5640897.0
16	15	10	43	71	7.0	45400.0	-15601.0	-5640307.0
16	15	10	43	71	8.0	24701.0	-15512.0	-5641237.0
16	15	10	43	71	9.0	13431.0	-17280.0	-5641646.0
16	15	10	43	72	10.0	4282.0	-18917.0	-5640823.0
16	15	10	43	72	11.0	-5594.0	-18906.0	-5640281.0
16	15	10	43	72	12.0	-11951.0	-18882.0	-5641461.0
16	15	10	43	72	13.0	-10555.0	-18393.0	-5641842.0
16	15	10	43	73	14.0	-7880.0	-15334.0	-5640992.0
16	15	10	43	73	15.0	-5339.0	-14369.0	-5640499.0
16	15	10	43	73	16.0	-886.0	-14809.0	-5641737.0
16	15	10	43	73	17.0	10391.0	-17275.0	-5641962.0
16	15	10	43	73	18.0	19081.0	-15446.0	-5641127.0
16	15	10	43	74	19.0	22659.0	-13914.0	-5640432.0
16	15	10	43	74	20.0	20634.0	-13689.0	-5641280.0
16	15	10	43	74	21.0	14481.0	-13606.0	-5641760.0
16	15	10	43	74	22.0	12454.0	-12872.0	-5640964.0
16	15	10	43	75	23.0	2062.0	-13233.0	-5640412.0
16	15	10	43	75	24.0	-3369.0	-14382.0	-5641744.0
16	15	10	43	75	25.0	-9842.0	-15826.0	-5641947.0
16	15	10	43	76	26.0	-11656.0	-15696.0	-5641146.0
16	15	10	43	76	27.0	-4317.0	-14494.0	-5640679.0
16	15	10	43	76	28.0	-10963.0	-11763.0	-5642011.0
16	15	10	43	76	29.0	-26525.0	-10726.0	-5642015.0
16	15	10	43	77	30.0	-36630.0	-10422.0	-5641211.0
16	15	10	43	77	31.0	-40318.0	-11002.0	-5640840.0
16	15	10	43	77	32.0	-44809.0	-13537.0	-5642336.0
16	15	10	43	77	33.0	-38086.0	-13039.0	-5642090.0
16	15	10	43	78	34.0	-28659.0	-9798.0	-5641334.0
16	15	10	43	78	35.0	-24954.0	-9019.0	-5640876.0
16	15	10	43	78	36.0	-21265.0	-8691.0	-5641683.0
16	15	10	43	78	37.0	-18902.0	-8716.0	-5641232.0
16	15	10	43	79	38.0	-18334.0	-8139.0	-5640609.0
16	15	10	43	79	39.0	-24561.0	-9260.0	-5641594.0
16	15	10	43	79	40.0	-29991.0	-10787.0	-5642242.0
16	15	10	43	79	41.0	-39128.0	-10315.0	-5641402.0
16	15	10	43	79	42.0	-50136.0	-7121.0	-5640892.0
16	15	10	43	80	43.0	-58536.0	-6531.0	-5642116.0
16	15	10	43	80	44.0	-70148.0	-6540.0	-5642339.0
16	15	10	43	80	45.0	-82219.0	-5971.0	-5641491.0
16	15	10	43	80	46.0	-96671.0	-6348.0	-5640931.0
16	15	10	43	181	47.0	-106452.0	-8334.0	-5641942.0
16	15	10	43	182	48.0	-108131.0	-8876.0	-5642266.0
16	15	10	43	182	49.0	-117848.0	-6309.0	-5641391.0
16	15	10	43	182	50.0	-126501.0	-4727.0	-5640827.0
16	15	10	43	183	51.0	-130753.0	-4131.0	-5641924.0
16	15	10	43	183	52.0	-131319.0	-3849.0	-5642282.0
16	15	10	43	183	53.0	-127932.0	-3482.0	-5641407.0
16	15	10	43	183	54.0	-122825.0	-3476.0	-5640814.0
16	15	10	43	183	55.0	-121114.0	-2978.0	-5642064.0
16	15	10	43	184	56.0	-110979.0	-2267.0	-5642481.0
16	15	10	43	184	57.0	-98555.0	-2044.0	-5641651.0
16	15	10	43	184	58.0	-81349.0	-1924.0	-5641152.0
16	15	10	43	185	59.0	-60326.0	-1662.0	-5642302.0
16	15	10	43	185	60.0	-32281.0	-1487.0	-5642481.0
16	15	10	43	185	61.0	1122.0	-2241.0	-5641629.0
16	15	10	43	186	62.0	35102.0	-4990.0	-5641146.0
16	15	10	43	186	63.0	74898.0	-5354.0	-5642317.0
16	15	10	43	186	64.0	100237.0	-5349.0	-5642328.0
16	15	10	43	186	65.0	120806.0	-5356.0	-5641515.0
16	15	10	43	187	66.0	140424.0	-5143.0	-5640939.0
16	15	10	43	187	67.0	158813.0	-4251.0	-5641938.0
16	15	10	43	187	68.0	176985.0	-1874.0	-5642124.0
16	15	10	43	187	69.0	196981.0	-2707.0	-5641332.0
16	15	10	43	188	70.0	210168.0	-1769.0	-5640751.0
16	15	10	43	188	71.0	212011.0	-1262.0	-5642015.0
16	15	10	43	188	72.0	221250.0	-842.0	-5642121.0
16	15	10	43	188	73.0	242333.0	-1338.0	-5641380.0
16	15	10	43	189	74.0	266164.0	-1357.0	-5640941.0
16	15	10	43	189	75.0	279851.0	-1107.0	-5642374.0
16	15	10	43	189	76.0	267726.0	-2370.0	-5642269.0
16	15	10	43	190	77.0	210204.0	-5292.0	-5641492.0
16	15	10	43	190	78.0	165643.0	-5734.0	-5641326.0
16	15	10	43	190	79.0	153703.0	-5599.0	-5642754.0
16	15	10	43	190	80.0	-51439.0	-2835.0	-5642266.0
16	15	10	43	193	81.0	-603869.0	-1971.0	-5641437.0
16	15	10	43	193	82.0	-1132402.0	-2321.0	-5641291.0
16	15	10	43	194	83.0	-1254828.0	-2306.0	-5642477.0
16	15	10	43	194	84.0	-997529.0	-4522.0	-5641932.0
16	15	10	43	194	85.0	-592374.0	-5834.0	-5641247.0
16	15	10	43	195	86.0	-181236.0	-3190.0	-5640952.0
16	15	10	43	195	87.0	94173.0	-1648.0	-5642521.0
16	15	10	43	195	88.0	162300.0	-1534.0	-5642283.0
16	15	10	43	196	89.0	212648.0	-1297.0	-5641523.0
16	15	10	43	196	90.0	360018.0	-1456.0	-5641278.0
16	15	10	43	196	91.0	426549.0	-2445.0	-5642709.0
16	15	10	43	196	92.0	319794.0	-5197.0	-5642303.0
16	15	10	43	197	93.0	178550.0	-5927.0	-5641551.0
16	15	10	43	197	94.0	75559.0	-5011.0	-5642105.0
16	15	10	43	197	95.0	-33021.0	-2772.0	-5643116.0
16	15	10	43	198	96.0	-99635.0	-1996.0	-5642371.0
16	15	10	43	198	97.0	-55315.0	-2146.0	-5641607.0
16	15	10	43	198	98.0	42521.0	-2651.0	-5642052.0
16	15	10	43	198	99.0	96243.0	-4475.0	-5643145.0
16	15	10	43	199	100.0	114108.0	-5472.0	-5642506.0
16	15	10	43	199	101.0	151094.0	-3046.0	-5641639.0
16	15	10	43	199	102.0	206617.0	-1679.0	-5641685.0
16	15	10	43	200	103.0	191088.0	-1611.0	-5642982.0
16	15	10	43	200	104.0	98220.0	-1437.0	-5642550.0
16	15	10	43	200	105.0	11878.0	-1662.0	-5641711.0
16	15	10	43	201	106.0	-20004.0	-1912.0	-5641798.0
16	15	10	43	201	107.0	-30543.0	-1583.0	-5643109.0
16	15	10	43	202	108.0	-56162.0	-1108.0	-5642642.0
16	15	10	43	202	109.0	-113342.0	-1222.0	-5641799.0
16	15	10	43	202	110.0	-184942.0	-1784.0	-5642466.0
16	15	10	43	203	111.0	-244522.0	-1354.0	-5643168.0
16	15	10	43	203	112.0	-281860.0	-1326.0	-5642477.0
16	15	10	43	203	113.0	-297548.0	-1837.0	-5641681.0
16	15	10	43	204	114.0	-286754.0	-3910.0	-5642572.0
16	15	10	43	204	115.0	-261072.0	-5062.0	-5643154.0
16	15	10	43	204	116.0	-230952.0	-5154.0	-5642447.0
16	15	10	43	205	117.0	-199859.0	-5081.0	-5641578.0
16	15	10	43	205	118.0	-163469.0	-5177.0	-5641900.0
16	15	10	43	205	119.0	-133851.0	-4974.0	-5643001.0
16	15	10	43	206	120.0	-122373.0	-2939.0	-5642444.0
16	15	10	43	207	121.0	-127789.0	-2532.0	-5641597.0
16	15	10	43	306	122.0	-138747.0	-3535.0	-5642099.0
16	15	10	43	306	123.0	-151614.0	-1256.0	-5643162.0
16	15	10	43	306	124.0	-158089.0	-582.0	-5642554.0
16	15	10	43	307	125.0	-159664.0	288.0	-5641831.0
16	15	10	43	307	126.0	-156688.0	478.0	-5642940.0
16	15	10	43	307	127.0	-145812.0	-166.0	-5643591.0
16	15	10	43	307	128.0	-133504.0	-624.0	-5642847.0
16	15	10	43	308	129.0	-120090.0	-2538.0	-5642036.0
16	15	10	43	308	130.0	-95735.0	-3851.0	-5642391.0
16	15	10	43	308	131.0	-72665.0	-3747.0	-5642635.0
16	15	10	43	308	132.0	-51932.0	-1253.0	-5641902.0
16	15	10	43	309	133.0	-27924.0	-642.0	-5641801.0
16	15	10	43	309	134.0	-2321.0	-713.0	-5643181.0
16	15	10	43	309	135.0	35715.0	-323.0	-5642746.0
16	15	10	43	309	136.0	89509.0	-1439.0	-5641957.0
16	15	10	43	310	137.0	140600.0	-3611.0	-5641657.0
16	15	10	43	310	138.0	162818.0	-3024.0	-5642932.0
16	15	10	43	310	139.0	174035.0	-311.0	-5642676.0
16	15	10	43	310	140.0	188909.0	49.0	-5641892.0
16	15	10	43	310	141.0	190663.0	171.0	-5642095.0
16	15	10	43	311	142.0	183837.0	1158.0	-5643457.0
16	15	10	43	311	143.0	169645.0	1094.0	-5642898.0
16	15	10	43	311	144.0	139404.0	-1216.0	-5642064.0
16	15	10	43	312	145.0	116820.0	-2431.0	-5642231.0
16	15	10	43	312	146.0	96908.0	-1746.0	-5643412.0
16	15	10	43	312	147.0	76492.0	1008.0	-5642851.0
16	15	10	43	313	148.0	64898.0	2143.0	-5641970.0
16	15	10	43	313	149.0	68346.0	2374.0	-5641918.0
16	15	10	43	314	150.0	81264.0	2216.0	-5643268.0
16	15	10	43	314	151.0	91878.0	1471.0	-5642918.0
16	15	10	43	314	152.0	97030.0	-686.0	-5642047.0
16	15	10	43	314	153.0	96684.0	-342.0	-5642354.0
16	15	10	43	315	154.0	95071.0	2693.0	-5643382.0
16	15	10	43	315	155.0	93273.0	4291.0	-5642821.0
16	15	10	43	315	156.0	98663.0	5072.0	-5642023.0
16	15	10	43	315	157.0	103771.0	5296.0	-5642724.0
16	15	10	43	316	158.0	106254.0	6209.0	-5643446.0
16	15	10	43	316	159.0	100229.0	6988.0	-5642770.0
16	15	10	43	316	160.0	88099.0	7695.0	-5641984.0
16	15	10	43	316	161.0	90643.0	8778.0	-5642817.0
16	15	10	43	317	162.0	114176.0	9081.0	-5643354.0
16	15	10	43	317	163.0	131489.0	10181.0	-5642631.0
16	15	10	43	317	164.0	135332.0	11611.0	-5641791.0
16	15	10	43	317	165.0	128582.0	12968.0	-5642494.0
16	15	10	43	318	166.0	134699.0	13299.0	-5643247.0
16	15	10	43	318	167.0	139981.0	12532.0	-5642554.0
16	15	10	43	318	168.0	131798.0	13356.0	-5641739.0
16	15	10	43	318	169.0	126609.0	14313.0	-5642187.0
16	15	10	43	319	170.0	121641.0	15491.0	-5643246.0
16	15	10	43	319	171.0	113223.0	16974.0	-5642648.0
16	15	10	43	319	172.0	107263.0	19504.0	-5641899.0
16	15	10	43	321	173.0	92954.0	23955.0	-5642416.0
16	15	10	43	321	174.0	64933.0	24695.0	-5642634.0
16	15	10	43	321	175.0	41073.0	28134.0	-5641934.0
16	15	10	43	322	176.0	32929.0	30203.0	-5642426.0
16	15	10	43	322	177.0	22971.0	31801.0	-5643381.0
16	15	10	43	322	178.0	15716.0	33773.0	-5642599.0
16	15	10	43	323	179.0	15734.0	35478.0	-5641874.0
16	15	10	43	323	180.0	3578.0	36606.0	-5642571.0
16	15	10	43	323	181.0	-20937.0	36706.0	-5643187.0
16	15	10	43	324	182.0	-51069.0	35249.0	-5642402.0
16	15	10	43	454	183.0	-76558.0	35591.0	-5641806.0
16	15	10	43	454	184.0	-98504.0	37196.0	-5642916.0
16	15	10	43	454	185.0	-109721.0	40465.0	-5643194.0
16	15	10	43	455	186.0	-114823.0	41758.0	-5642380.0
16	15	10	43	455	187.0	-122261.0	42421.0	-5642092.0
16	15	10	43	455	188.0	-136169.0	42200.0	-5643426.0
16	15	10	43	456	189.0	-147312.0	40430.0	-5643195.0
16	15	10	43	456	190.0	-146067.0	40329.0	-5642408.0
16	15	10	43	456	191.0	-126090.0	43188.0	-5642152.0
16	15	10	43	457	192.0	-93636.0	44171.0	-5643467.0
16	15	10	43	457	193.0	-50300.0	44331.0	-5643126.0
16	15	10	43	457	194.0	-19922.0	44118.0	-5642332.0
16	15	10	43	457	195.0	8736.0	43928.0	-5641866.0
16	15	10	43	458	196.0	43921.0	42216.0	-5643359.0
16	15	10	43	458	197.0	59656.0	39336.0	-5643227.0
16	15	10	43	458	198.0	73666.0	38814.0	-5642496.0
16	15	10	43	459	199.0	72919.0	40809.0	-5641911.0
16	15	10	43	459	200.0	49107.0	41543.0	-5643153.0
16	15	10	43	459	201.0	27259.0	40731.0	-5643087.0
16	15	10	43	459	202.0	3246.0	40151.0	-5642344.0
16	15	10	43	460	203.0	-40526.0	38836.0	-5641812.0
16	15	10	43	460	204.0	-142686.0	35596.0	-5642502.0
16	15	10	43	460	205.0	-415902.0	33224.0	-5642056.0
16	15	10	43	460	206.0	-758796.0	33746.0	-5641671.0
16	15	10	43	461	207.0	-689814.0	35330.0	-5642949.0
16	15	10	43	461	208.0	-63674.0	35151.0	-5642951.0
16	15	10	43	461	209.0	513053.0	33769.0	-5642115.0
16	15	10	43	462	210.0	590037.0	32011.0	-5641871.0
16	15	10	43	462	211.0	404341.0	29220.0	-5643165.0
16	15	10	43	462	212.0	266966.0	25932.0	-5642989.0
16	15	10	43	462	213.0	96446.0	25161.0	-5642076.0
16	15	10	43	462	214.0	-88588.0	26378.0	-5641611.0
16	15	10	43	463	215.0	-215073.0	25691.0	-5642812.0
16	15	10	43	463	216.0	-324060.0	23843.0	-5642854.0
16	15	10	43	463	217.0	-376532.0	23239.0	-5641984.0
16	15	10	43	464	218.0	-338490.0	21940.0	-5641732.0
16	15	10	43	464	219.0	-269237.0	18056.0	-5643154.0
16	15	10	43	464	220.0	-193382.0	15760.0	-5643032.0
16	15	10	43	464	221.0	-105470.0	15328.0	-5642144.0
16	15	10	43	465	222.0	-38463.0	16471.0	-5641939.0
16	15	10	43	465	223.0	-3136.0	15853.0	-5643210.0
16	15	10	43	465	224.0	29573.0	14987.0	-5642909.0
16	15	10	43	465	225.0	71416.0	13676.0	-5642093.0
16	15	10	43	466	226.0	114576.0	11108.0	-5641927.0
16	15	10	43	466	227.0	141126.0	7648.0	-5642882.0
16	15	10	43	466	228.0	150326.0	6891.0	-5642378.0
16	15	10	43	466	229.0	154402.0	8209.0	-5641581.0
16	15	10	43	467	230.0	142689.0	7867.0	-5641205.0
16	15	10	43	467	231.0	119488.0	6546.0	-5642518.0
16	15	10	43	467	232.0	112994.0	5228.0	-5642216.0
16	15	10	43	467	233.0	105390.0	4051.0	-5641420.0
16	15	10	43	468	234.0	96878.0	991.0	-5641064.0
16	15	10	43	468	235.0	86622.0	-770.0	-5641893.0
16	15	10	43	468	236.0	66348.0	-606.0	-5641411.0
16	15	10	43	468	237.0	52690.0	1574.0	-5641528.0
16	15	10	43	469	238.0	41132.0	379.0	-5643022.0
16	15	10	43	469	239.0	35411.0	-622.0	-5642573.0
16	15	10	43	469	240.0	46794.0	-1360.0	-5641724.0
16	15	10	43	469	241.0	70542.0	-3964.0	-5641638.0
16	15	10	43	470	242.0	98523.0	-6789.0	-5642986.0
16	15	10	43	470	243.0	127766.0	-6823.0	-5642571.0
16	15	10	43	470	244.0	159879.0	-5110.0	-5641700.0
16	15	10	43	470	245.0	197286.0	-5460.0	-5641436.0
16	15	10	43	470	246.0	230393.0	-5803.0	-5642791.0
16	15	10	43	471	247.0	255783.0	-6482.0	-5642647.0
16	15	10	43	471	248.0	272593.0	-7809.0	-5641772.0
16	15	10	43	472	249.0	267643.0	-10806.0	-5641480.0
16	15	10	43	668	250.0	261134.0	-11921.0	-5643046.0
16	15	10	43	669	251.0	257618.0	-11018.0	-5643096.0
16	15	10	43	670	252.0	249973.0	-9409.0	-5642229.0
16	15	10	43	670	253.0	235673.0	-10387.0	-5642291.0
16	15	10	43	672	254.0	204882.0	-10579.0	-5643497.0
16	15	10	43	672	255.0	175121.0	-10809.0	-5643064.0
16	15	10	43	673	0.0	142038.0	-12719.0	-5642192.0
16	15	10	43	674	1.0	110071.0	-15244.0	-5641856.0
16	15	10	43	675	2.0	87079.0	-14537.0	-5643017.0
16	15	10	43	676	3.0	64322.0	-12935.0	-5642908.0
16	15	10	43	677	4.0	52157.0	-12791.0	-5642049.0
16	15	10	43	677	5.0	46928.0	-13439.0	-5641662.0
16	15	10	43	678	6.0	32953.0	-13285.0	-5642921.0
16	15	10	43	679	7.0	22618.0	-13964.0	-5642821.0
16	15	10	43	680	8.0	20611.0	-17179.0	-5641977.0
16	15	10	43	683	9.0	17787.0	-18426.0	-5641786.0
16	15	10	43	684	10.0	19408.0	-18126.0	-5643278.0
16	15	10	43	685	11.0	20348.0	-15442.0	-5643023.0
16	15	10	43	686	12.0	30726.0	-14444.0	-5642189.0
16	15	10	43	687	13.0	43419.0	-14831.0	-5642349.0
16	15	10	43	688	14.0	49506.0	-15217.0	-5643556.0
16	15	10	43	689	15.0	53829.0	-17364.0	-5643023.0
16	15	10	43	690	16.0	62708.0	-19419.0	-5642222.0
16	15	10	43	691	17.0	76743.0	-18747.0	-5642672.0
16	15	10	43	692	18.0	88111.0	-16316.0	-5643806.0
16	15	10	43	693	19.0	92819.0	-16151.0	-5643112.0
16	15	10	43	694	20.0	98993.0	-16349.0	-5642366.0
16	15	10	43	695	21.0	98625.0	-16099.0	-5642334.0
16	15	10	43	696	22.0	95532.0	-16515.0	-5643638.0
16	15	10	43	697	23.0	88679.0	-18942.0	-5643092.0
16	15	10	43	698	24.0	82343.0	-19409.0	-5642336.0
16	15	10	43	699	25.0	68026.0	-16714.0	-5642062.0
16	15	10	43	700	26.0	44529.0	-16074.0	-5643162.0
16	15	10	43	700	27.0	17330.0	-16121.0	-5642747.0
16	15	10	43	700	28.0	-2659.0	-15269.0	-5642314.0
16	15	10	43	701	29.0	-10378.0	-15013.0	-5643541.0
16	15	10	43	702	30.0	-24244.0	-16886.0	-5643410.0
16	15	10	43	702	31.0	-34687.0	-18670.0	-5642559.0
16	15	10	43	702	32.0	-44672.0	-17980.0	-5641984.0
16	15	10	43	703	33.0	-47815.0	-14866.0	-5642967.0
16	15	10	43	703	34.0	-42315.0	-13571.0	-5643205.0
16	15	10	43	704	35.0	-42095.0	-13636.0	-5642332.0
16	15	10	43	704	36.0	-37501.0	-13358.0	-5641842.0
16	15	10	43	704	37.0	-30703.0	-13664.0	-5643031.0
16	15	10	43	705	38.0	-24683.0	-15865.0	-5643250.0
16	15	10	43	705	39.0	-16529.0	-15686.0	-5642372.0
16	15	10	43	705	40.0	-19184.0	-13042.0	-5641846.0
16	15	10	43	706	41.0	-26581.0	-11451.0	-5643066.0
16	15	10	43	706	42.0	-29020.0	-10511.0	-5643496.0
16	15	10	43	706	43.0	-30018.0	-9793.0	-5642665.0
16	15	10	43	707	44.0	-35300.0	-9997.0	-5642382.0
16	15	10	43	707	45.0	-34636.0	-11806.0	-5643539.0
16	15	10	43	707	46.0	-23672.0	-13267.0	-5643361.0
16	15	10	43	708	47.0	-8123.0	-12289.0	-5642479.0
16	15	10	43	708	48.0	4998.0	-9117.0	-5642206.0
16	15	10	43	708	49.0	11084.0	-7260.0	-5643473.0
16	15	10	43	709	50.0	17069.0	-6820.0	-5643314.0
16	15	10	43	709	51.0	22561.0	-7073.0	-5642387.0
16	15	10	43	709	52.0	10829.0	-7325.0	-5641903.0
16	15	10	43	710	53.0	588.0	-8528.0	-5643260.0
16	15	10	43	710	54.0	-6340.0	-6404.0	-5643509.0
16	15	10	43	711	55.0	-26346.0	-5619.0	-5642639.0
16	15	10	43	712	56.0	-42891.0	-5591.0	-5642609.0
16	15	10	43	712	57.0	-60549.0	-5791.0	-5644016.0
16	15	10	43	713	58.0	-79274.0	-5996.0	-5643644.0
16	15	10	43	713	59.0	-95507.0	-5911.0	-5642822.0
16	15	10	43	713	60.0	-118057.0	-6734.0	-5642776.0
16	15	10	43	714	61.0	-135124.0	-8367.0	-5644118.0
16	15	10	43	714	62.0	-147151.0	-8210.0	-5643734.0
16	15	10	43	714	63.0	-158531.0	-8094.0	-5642882.0
16	15	10	43	715	64.0	-160024.0	-7739.0	-5642679.0
16	15	10	43	715	65.0	-165801.0	-5332.0	-5644104.0
16	15	10	43	715	66.0	-169465.0	-3894.0	-5643842.0
16	15	10	43	715	67.0	-164951.0	-3987.0	-5642991.0
16	15	10	43	716	68.0	-161294.0	-6072.0	-5642750.0
16	15	10	43	716	69.0	-149119.0	-4469.0	-5644135.0
16	15	10	43	717	70.0	-133661.0	-2665.0	-5643794.0
16	15	10	43	717	71.0	-109093.0	-2541.0	-5643016.0
16	15	10	43	717	72.0	-80771.0	-3047.0	-5642520.0
16	15	10	43	718	73.0	-51512.0	-2999.0	-5643738.0
16	15	10	43	718	74.0	-31319.0	-3174.0	-5643541.0
16	15	10	43	718	75.0	-9607.0	-4979.0	-5642799.0
16	15	10	43	719	76.0	12573.0	-6686.0	-5642749.0
16	15	10	43	719	77.0	39534.0	-7089.0	-5643651.0
16	15	10	43	719	78.0	69638.0	-5394.0	-5643061.0
16	15	10	43	720	79.0	96028.0	-2563.0	-5642749.0
16	15	10	43	720	80.0	112618.0	-2440.0	-5644042.0
16	15	10	43	720	81.0	125331.0	-2383.0	-5643857.0
16	15	10	43	722	82.0	139226.0	-2985.0	-5643031.0
16	15	10	43	722	83.0	151171.0	-5629.0	-5642549.0
16	15	10	43	723	84.0	157405.0	-5294.0	-5643897.0
16	15	10	43	723	85.0	162079.0	-2683.0	-5644189.0
16	15	10	43	723	86.0	170786.0	-2213.0	-5643329.0
16	15	10	43	724	87.0	185785.0	-2295.0	-5642889.0
16	15	10	43	724	88.0	205000.0	-2131.0	-5643950.0
16	15	10	43	724	89.0	179971.0	-2032.0	-5643964.0
16	15	10	43	725	90.0	-52476.0	-3206.0	-5643069.0
16	15	10	43	725	91.0	-514216.0	-2334.0	-5642867.0
16	15	10	43	726	92.0	-888985.0	-2536.0	-5644194.0
16	15	10	43	726	93.0	-964804.0	-2896.0	-5643939.0
16	15	10	43	727	94.0	-779829.0	-2955.0	-5643074.0
16	15	10	43	727	95.0	-444581.0	-2459.0	-5642830.0
16	15	10	43	727	96.0	-69131.0	-2215.0	-5644096.0
16	15	10	43	728	97.0	205836.0	-2684.0	-5643956.0
16	15	10	43	728	98.0	322552.0	-5324.0	-5643105.0
16	15	10	43	728	99.0	384248.0	-5900.0	-5642571.0
16	15	10	43	728	100.0	490917.0	-5812.0	-5643794.0
16	15	10	43	729	101.0	558864.0	-6201.0	-5643976.0
16	15	10	43	729	102.0	408613.0	-6565.0	-5643122.0
16	15	10	43	729	103.0	118839.0	-5941.0	-5642604.0
16	15	10	43	729	104.0	-27806.0	-3279.0	-5643794.0
16	15	10	43	730	105.0	-42209.0	-3566.0	-5643776.0
16	15	10	43	730	106.0	-117016.0	-2782.0	-5642961.0
16	15	10	43	730	107.0	-194385.0	-2523.0	-5643259.0
16	15	10	43	730	108.0	-164365.0	-2342.0	-5644429.0
16	15	10	43	732	109.0	-88103.0	-2032.0	-5643844.0
16	15	10	43	732	110.0	-12743.0	-1509.0	-5643055.0
16	15	10	43	733	111.0	84041.0	-1201.0	-5643418.0
16	15	10	43	733	112.0	133405.0	-2013.0	-5644388.0
16	15	10	43	733	113.0	97321.0	-4468.0	-5643697.0
16	15	10	43	733	114.0	7794.0	-5342.0	-5642861.0
16	15	10	43	734	115.0	-68397.0	-5120.0	-5642601.0
16	15	10	43	734	116.0	-70558.0	-2411.0	-5643795.0
16	15	10	43	734	117.0	-35725.0	-1436.0	-5643298.0
16	15	10	43	734	118.0	-25081.0	-1429.0	-5642584.0
16	15	10	43	735	119.0	-37729.0	-1246.0	-5643282.0
16	15	10	43	735	120.0	-63201.0	-3069.0	-5644261.0
16	15	10	43	735	121.0	-107634.0	-4451.0	-5643454.0
16	15	10	43	735	122.0	-164096.0	-3207.0	-5642768.0
16	15	10	43	736	123.0	-197368.0	-1291.0	-5643549.0
16	15	10	43	736	124.0	-202662.0	-727.0	-5644294.0
16	15	10	43	736	125.0	-185871.0	-290.0	-5643476.0
16	15	10	43	736	126.0	-155745.0	-244.0	-5642892.0
16	15	10	43	737	127.0	-137415.0	-997.0	-5643823.0
16	15	10	43	737	128.0	-127248.0	-3563.0	-5644251.0
16	15	10	43	737	129.0	-107581.0	-3641.0	-5643381.0
16	15	10	43	738	130.0	-91667.0	-1183.0	-5642689.0
16	15	10	43	738	131.0	-82679.0	-204.0	-5643521.0
16	15	10	43	738	132.0	-76759.0	24.0	-5644323.0
16	15	10	43	739	133.0	-91722.0	467.0	-5643532.0
16	15	10	43	739	134.0	-107783.0	470.0	-5642757.0
16	15	10	43	831	135.0	-107351.0	-2239.0	-5643190.0
16	15	10	43	831	136.0	-98754.0	-3929.0	-5644019.0
16	15	10	43	832	137.0	-105570.0	-2999.0	-5643280.0
16	15	10	43	839	138.0	-114636.0	-554.0	-5642578.0
16	15	10	43	840	139.0	-104678.0	122.0	-5643643.0
16	15	10	43	840	140.0	-90244.0	722.0	-5644317.0
16	15	10	43	840	141.0	-77546.0	918.0	-5643553.0
16	15	10	43	841	142.0	-73550.0	239.0	-5642844.0
16	15	10	43	842	143.0	-60793.0	-2235.0	-5643738.0
16	15	10	43	843	144.0	-43411.0	-2191.0	-5644226.0
16	15	10	43	843	145.0	-16114.0	324.0	-5643465.0
16	15	10	43	844	146.0	17383.0	1508.0	-5642712.0
16	15	10	43	844	147.0	44053.0	1499.0	-5643711.0
16	15	10	43	846	148.0	49758.0	1433.0	-5644245.0
16	15	10	43	847	149.0	54832.0	1515.0	-5643541.0
16	15	10	43	847	150.0	56856.0	-990.0	-5642744.0
16	15	10	43	848	151.0	60203.0	-2539.0	-5643481.0
16	15	10	43	848	152.0	74707.0	-1855.0	-5644209.0
16	15	10	43	849	153.0	91367.0	1128.0	-5643531.0
16	15	10	43	849	154.0	99498.0	1930.0	-5642849.0
16	15	10	43	850	155.0	108106.0	1529.0	-5643927.0
16	15	10	43	850	156.0	116702.0	2049.0	-5644089.0
16	15	10	43	851	157.0	114125.0	1173.0	-5643333.0
16	15	10	43	852	158.0	110223.0	-1232.0	-5642691.0
16	15	10	43	852	159.0	106378.0	-1007.0	-5643914.0
16	15	10	43	852	160.0	111564.0	1873.0	-5643984.0
16	15	10	43	853	161.0	131138.0	3489.0	-5643229.0
16	15	10	43	853	162.0	142309.0	4226.0	-5642492.0
16	15	10	43	854	163.0	151709.0	4796.0	-5643196.0
16	15	10	43	854	164.0	167685.0	5100.0	-5643196.0
16	15	10	43	854	165.0	195371.0	3088.0	-5642573.0
16	15	10	43	855	166.0	228218.0	1909.0	-5643377.0
16	15	10	43	855	167.0	247634.0	3246.0	-5643908.0
16	15	10	43	855	168.0	262065.0	6715.0	-5643055.0
16	15	10	43	856	169.0	257285.0	7923.0	-5642447.0
16	15	10	43	856	170.0	240760.0	8704.0	-5643433.0
16	15	10	43	856	171.0	228045.0	9820.0	-5643931.0
16	15	10	43	857	172.0	216474.0	9524.0	-5643104.0
16	15	10	43	857	173.0	201219.0	7931.0	-5642514.0
16	15	10	43	857	174.0	179586.0	8709.0	-5643589.0
16	15	10	43	858	175.0	156548.0	12400.0	-5644077.0
16	15	10	43	858	176.0	132527.0	14925.0	-5643210.0
16	15	10	43	858	177.0	103549.0	16178.0	-5642680.0
16	15	10	43	859	178.0	63754.0	18189.0	-5643791.0
16	15	10	43	859	179.0	19397.0	18803.0	-5643912.0
16	15	10	43	859	180.0	-10977.0	17935.0	-5643057.0
16	15	10	43	860	181.0	-25371.0	17838.0	-5642311.0
16	15	10	43	860	182.0	-30496.0	20306.0	-5643126.0
16	15	10	43	860	183.0	-38225.0	24568.0	-5643782.0
16	15	10	43	861	184.0	-49289.0	26246.0	-5643036.0
16	15	10	43	861	185.0	-59093.0	27527.0	-5642344.0
16	15	10	43	862	186.0	-64016.0	29574.0	-5643271.0
16	15	10	43	862	187.0	-70457.0	30256.0	-5643589.0
16	15	10	43	862	188.0	-69072.0	29253.0	-5642801.0
16	15	10	43	863	189.0	-68466.0	30942.0	-5642249.0
16	15	10	43	863	190.0	-70159.0	34916.0	-5643692.0
16	15	10	43	863	191.0	-70662.0	36624.0	-5643914.0
16	15	10	43	864	192.0	-77027.0	37971.0	-5643157.0
16	15	10	43	864	193.0	-78202.0	39099.0	-5642540.0
16	15	10	43	864	194.0	-77937.0	39539.0	-5643681.0
16	15	10	43	865	195.0	-69452.0	38224.0	-5643705.0
16	15	10	43	975	196.0	-55304.0	37434.0	-5642956.0
16	15	10	43	976	197.0	-34607.0	39136.0	-5642261.0
16	15	10	43	977	198.0	5014.0	42713.0	-5643439.0
16	15	10	43	978	199.0	45846.0	43936.0	-5643818.0
16	15	10	43	979	200.0	75643.0	44191.0	-5643094.0
16	15	10	43	980	201.0	105104.0	44634.0	-5642399.0
16	15	10	43	981	202.0	142221.0	43854.0	-5643497.0
16	15	10	43	982	203.0	168341.0	41234.0	-5643694.0
16	15	10	43	983	204.0	182817.0	41249.0	-5642962.0
16	15	10	43	984	205.0	182724.0	43845.0	-5642446.0
16	15	10	43	985	206.0	164553.0	44061.0	-5643314.0
16	15	10	43	986	207.0	127513.0	43478.0	-5642942.0
16	15	10	43	988	208.0	73020.0	42979.0	-5642558.0
16	15	10	43	989	209.0	-2953.0	42396.0	-5643731.0
16	15	10	43	990	210.0	-80905.0	39525.0	-5643613.0
16	15	10	43	991	211.0	-166777.0	37253.0	-5642689.0
16	15	10	43	992	212.0	-361827.0	36979.0	-5642167.0
16	15	10	43	993	213.0	-735050.0	38374.0	-5643199.0
16	15	10	43	993	214.0	-974999.0	38191.0	-5643341.0
16	15	10	43	994	215.0	-629544.0	37542.0	-5642497.0
16	15	10	43	994	216.0	146546.0	36909.0	-5642259.0
16	15	10	43	994	217.0	638812.0	35006.0	-5643429.0
16	15	10	43	995	218.0	617746.0	31823.0	-5643216.0
16	15	10	43	995	219.0	501229.0	31129.0	-5642349.0
16	15	10	43	996	220.0	454554.0	32453.0	-5642265.0
16	15	10	43	996	221.0	337331.0	32381.0	-5643453.0
16	15	10	43	996	222.0	221001.0	31339.0	-5643082.0
16	15	10	43	997	223.0	125866.0	30214.0	-5642213.0
16	15	10	43	997	224.0	21472.0	28691.0	-5642453.0
16	15	10	43	997	225.0	-37239.0	24799.0	-5643798.0
16	15	10	43	998	226.0	-58036.0	22327.0	-5643281.0
16	15	10	43	998	227.0	-88153.0	22051.0	-5642420.0
16	15	10	43	998	228.0	-103317.0	22443.0	-5642377.0
16	15	10	43	999	229.0	-98429.0	22278.0	-5643586.0
16	15	10	43	999	230.0	-106121.0	20937.0	-5643102.0
16	15	10	43	999	231.0	-150802.0	19573.0	-5642298.0
16	15	10	44	0	232.0	-215847.0	16904.0	-5642170.0
16	15	10	44	0	233.0	-291440.0	13211.0	-5643577.0
16	15	10	44	0	234.0	-312686.0	12324.0	-5643119.0
16	15	10	44	1	235.0	-233133.0	14064.0	-5642396.0
16	15	10	44	1	236.0	-121707.0	13631.0	-5642924.0
16	15	10	44	1	237.0	-54254.0	12669.0	-5643871.0
16	15	10	44	2	238.0	-19961.0	11925.0	-5643131.0
16	15	10	44	2	239.0	9443.0	10474.0	-5642397.0
16	15	10	44	2	240.0	30294.0	7014.0	-5642766.0
16	15	10	44	3	241.0	39698.0	4693.0	-5643831.0
16	15	10	44	3	242.0	43082.0	4628.0	-5643106.0
16	15	10	44	4	243.0	65251.0	6214.0	-5642351.0
16	15	10	44	4	244.0	99911.0	5195.0	-5642522.0
16	15	10	44	5	245.0	126113.0	4466.0	-5643606.0
16	15	10	44	6	246.0	147001.0	3489.0	-5642944.0
16	15	10	44	7	247.0	156929.0	1089.0	-5642238.0
16	15	10	44	8	248.0	162144.0	-1931.0	-5642759.0
16	15	10	44	9	249.0	163070.0	-2271.0	-5643806.0
16	15	10	44	9	250.0	166952.0	-509.0	-5643081.0
16	15	10	44	10	251.0	175864.0	-349.0	-5642418.0
16	15	10	44	11	252.0	185236.0	-639.0	-5643212.0
16	15	10	44	13	253.0	194211.0	-1577.0	-5643989.0
16	15	10	44	15	254.0	213051.0	-2741.0	-5643189.0
16	15	10	44	16	255.0	238839.0	-6384.0	-5642542.0
16	15	10	44	16	0.0	304767.0	-8615.0	-5643309.0
16	15	10	44	17	1.0	338156.0	-8001.0	-5644032.0
16	15	10	44	17	2.0	167534.0	-5801.0	-5643201.0
16	15	10	44	17	3.0	109999.0	-6233.0	-5642404.0
16	15	10	44	18	4.0	204753.0	-7389.0	-5642800.0
16	15	10	44	18	5.0	208419.0	-7893.0	-5643803.0
16	15	10	44	18	6.0	192006.0	-8557.0	-5643111.0
16	15	10	44	19	7.0	186965.0	-9142.0	-5642384.0
16	15	10	44	19	8.0	168963.0	-9628.0	-5643067.0
16	15	10	44	19	9.0	157628.0	-10163.0	-5643840.0
16	15	10	44	20	10.0	143199.0	-10419.0	-5643097.0
16	15	10	44	20	11.0	122699.0	-10734.0	-5642456.0
16	15	10	44	20	12.0	106966.0	-10746.0	-5643481.0
16	15	10	44	21	13.0	81206.0	-11712.0	-5643854.0
16	15	10	44	21	14.0	57518.0	-14928.0	-5643059.0
16	15	10	44	22	15.0	37545.0	-16369.0	-5642365.0
16	15	10	44	23	16.0	17756.0	-16808.0	-5643401.0
16	15	10	44	23	17.0	1889.0	-16860.0	-5644027.0
16	15	10	44	24	18.0	-17878.0	-17092.0	-5643266.0
16	15	10	44	24	19.0	-33652.0	-16919.0	-5642424.0
16	15	10	44	128	20.0	-34779.0	-14602.0	-5643129.0
16	15	10	44	128	21.0	-35258.0	-15402.0	-5643878.0
16	15	10	44	129	22.0	-31614.0	-15614.0	-5643187.0
16	15	10	44	129	23.0	-21287.0	-14586.0	-5642378.0
16	15	10	44	129	24.0	29.0	-15030.0	-5643256.0
16	15	10	44	130	25.0	25154.0	-15603.0	-5643893.0
16	15	10	44	130	26.0	38242.0	-15039.0	-5643201.0
16	15	10	44	130	27.0	46283.0	-14902.0	-5642447.0
16	15	10	44	131	28.0	54548.0	-15260.0	-5643458.0
16	15	10	44	131	29.0	51980.0	-18069.0	-5643983.0
16	15	10	44	131	30.0	43091.0	-19393.0	-5643286.0
16	15	10	44	132	31.0	34796.0	-19254.0	-5642537.0
16	15	10	44	132	32.0	19354.0	-18016.0	-5643506.0
16	15	10	44	134	33.0	-1967.0	-15647.0	-5643952.0
16	15	10	44	134	34.0	-14126.0	-14426.0	-5643234.0
16	15	10	44	134	35.0	-14164.0	-14243.0	-5642412.0
16	15	10	44	135	36.0	-11722.0	-15820.0	-5643249.0
16	15	10	44	135	37.0	-3611.0	-17390.0	-5644107.0
16	15	10	44	135	38.0	8949.0	-14851.0	-5643439.0
16	15	10	44	135	39.0	13963.0	-13666.0	-5642684.0
16	15	10	44	137	40.0	14940.0	-13207.0	-5643314.0
16	15	10	44	138	41.0	11624.0	-13242.0	-5643436.0
16	15	10	44	138	42.0	2399.0	-12940.0	-5642726.0
16	15	10	44	139	43.0	-8691.0	-12807.0	-5643067.0
16	15	10	44	139	44.0	-18539.0	-14750.0	-5644094.0
16	15	10	44	139	45.0	-18669.0	-15533.0	-5643380.0
16	15	10	44	140	46.0	-7149.0	-14623.0	-5642676.0
16	15	10	44	140	47.0	4284.0	-11933.0	-5643243.0
16	15	10	44	140	48.0	2458.0	-10674.0	-5644042.0
16	15	10	44	140	49.0	-7528.0	-9937.0	-5643242.0
16	15	10	44	141	50.0	-20126.0	-9607.0	-5642497.0
16	15	10	44	141	51.0	-28397.0	-10805.0	-5642952.0
16	15	10	44	142	52.0	-29885.0	-12216.0	-5643874.0
16	15	10	44	142	53.0	-27539.0	-9524.0	-5643152.0
16	15	10	44	142	54.0	-17676.0	-7514.0	-5642369.0
16	15	10	44	143	55.0	-13222.0	-6976.0	-5642832.0
16	15	10	44	143	56.0	-10171.0	-6343.0	-5643678.0
16	15	10	44	143	57.0	-12054.0	-6245.0	-5642992.0
16	15	10	44	144	58.0	-14542.0	-6578.0	-5642387.0
16	15	10	44	144	59.0	-18406.0	-8951.0	-5643463.0
16	15	10	44	144	60.0	-19622.0	-9740.0	-5643703.0
16	15	10	44	145	61.0	-18762.0	-9484.0	-5642872.0
16	15	10	44	145	62.0	-24396.0	-6831.0	-5642263.0
16	15	10	44	145	63.0	-26287.0	-4374.0	-5643471.0
16	15	10	44	146	64.0	-34063.0	-3826.0	-5643795.0
16	15	10	44	146	65.0	-44197.0	-3349.0	-5642970.0
16	15	10	44	146	66.0	-54652.0	-4819.0	-5642198.0
16	15	10	44	147	67.0	-65177.0	-6834.0	-5643168.0
16	15	10	44	147	68.0	-68153.0	-5706.0	-5643955.0
16	15	10	44	147	69.0	-62175.0	-3126.0	-5643244.0
16	15	10	44	147	70.0	-62329.0	-2174.0	-5642489.0
16	15	10	44	148	71.0	-65139.0	-2152.0	-5643404.0
16	15	10	44	148	72.0	-58389.0	-2121.0	-5644108.0
16	15	10	44	148	73.0	-43981.0	-2369.0	-5643425.0
16	15	10	44	149	74.0	-27897.0	-4903.0	-5642660.0
16	15	10	44	318	75.0	-14023.0	-5402.0	-5643666.0
16	15	10	44	318	76.0	8834.0	-3367.0	-5644425.0
16	15	10	44	318	77.0	36133.0	-1846.0	-5643754.0
16	15	10	44	319	78.0	67728.0	-1979.0	-5643018.0
16	15	10	44	319	79.0	94694.0	-1889.0	-5644042.0
16	15	10	44	319	80.0	122294.0	-1079.0	-5644547.0
16	15	10	44	320	81.0	151425.0	-2474.0	-5643832.0
16	15	10	44	320	82.0	179776.0	-4787.0	-5642992.0
16	15	10	44	321	83.0	197926.0	-4375.0	-5643694.0
16	15	10	44	321	84.0	198909.0	-1449.0	-5644656.0
16	15	10	44	321	85.0	191428.0	-747.0	-5643996.0
16	15	10	44	322	86.0	174944.0	-1477.0	-5643141.0
16	15	10	44	322	87.0	154693.0	-1089.0	-5643609.0
16	15	10	44	322	88.0	134572.0	-1417.0	-5644600.0
16	15	10	44	323	89.0	122333.0	-3966.0	-5644012.0
16	15	10	44	323	90.0	119688.0	-4683.0	-5643243.0
16	15	10	44	323	91.0	128419.0	-1990.0	-5644117.0
16	15	10	44	323	92.0	62386.0	-75.0	-5644728.0
16	15	10	44	324	93.0	-231014.0	-472.0	-5643968.0
16	15	10	44	324	94.0	-644308.0	-628.0	-5643208.0
16	15	10	44	324	95.0	-921801.0	-1073.0	-5644163.0
16	15	10	44	324	96.0	-941612.0	-2399.0	-5644457.0
16	15	10	44	325	97.0	-721451.0	-4469.0	-5643703.0
16	15	10	44	325	98.0	-373206.0	-4112.0	-5642950.0
16	15	10	44	325	99.0	-2046.0	-1654.0	-5643487.0
16	15	10	44	325	100.0	279611.0	-1037.0	-5643926.0
16	15	10	44	326	101.0	409333.0	-871.0	-5643209.0
16	15	10	44	326	102.0	453367.0	-676.0	-5642920.0
16	15	10	44	326	103.0	472183.0	-1029.0	-5644213.0
16	15	10	44	327	104.0	468180.0	-1162.0	-5643821.0
16	15	10	44	327	105.0	462509.0	104.0	-5643054.0
16	15	10	44	327	106.0	363744.0	129.0	-5643060.0
16	15	10	44	327	107.0	149324.0	-422.0	-5644465.0
16	15	10	44	327	108.0	-46727.0	-1239.0	-5643917.0
16	15	10	44	328	109.0	-152517.0	-876.0	-5643158.0
16	15	10	44	328	110.0	-137306.0	-827.0	-5643453.0
16	15	10	44	328	111.0	-37665.0	-2613.0	-5644472.0
16	15	10	44	328	112.0	57719.0	-4482.0	-5643817.0
16	15	10	44	329	113.0	120438.0	-4934.0	-5643077.0
16	15	10	44	329	114.0	117298.0	-4858.0	-5643562.0
16	15	10	44	329	115.0	15873.0	-4951.0	-5644381.0
16	15	10	44	329	116.0	-125218.0	-4586.0	-5643648.0
16	15	10	44	330	117.0	-207991.0	-2347.0	-5642851.0
16	15	10	44	330	118.0	-220136.0	-1734.0	-5643651.0
16	15	10	44	330	119.0	-185915.0	-3599.0	-5644561.0
16	15	10	44	330	120.0	-145206.0	-1324.0	-5643851.0
16	15	10	44	331	121.0	-128508.0	-391.0	-5642989.0
16	15	10	44	331	122.0	-148050.0	-542.0	-5643294.0
16	15	10	44	332	123.0	-206152.0	-335.0	-5644377.0
16	15	10	44	332	124.0	-274647.0	-247.0	-5643791.0
16	15	10	44	332	125.0	-324437.0	-61.0	-5643007.0
16	15	10	44	333	126.0	-346074.0	-2091.0	-5643832.0
16	15	10	44	333	127.0	-361472.0	-4340.0	-5644434.0
16	15	10	44	333	128.0	-354274.0	-4656.0	-5643712.0
16	15	10	44	333	129.0	-316303.0	-3406.0	-5642937.0
16	15	10	44	334	130.0	-268849.0	-1160.0	-5643789.0
16	15	10	44	334	131.0	-227539.0	-967.0	-5644341.0
16	15	10	44	335	132.0	-198602.0	-1358.0	-5643641.0
16	15	10	44	335	133.0	-181133.0	-1497.0	-5642855.0
16	15	10	44	335	134.0	-188497.0	-3608.0	-5643699.0
16	15	10	44	336	135.0	-209752.0	-3357.0	-5644304.0
16	15	10	44	336	136.0	-216461.0	-991.0	-5643604.0
16	15	10	44	336	137.0	-205836.0	-442.0	-5642956.0
16	15	10	44	337	138.0	-190641.0	-568.0	-5643654.0
16	15	10	44	337	139.0	-181042.0	-599.0	-5643521.0
16	15	10	44	337	140.0	-167434.0	-919.0	-5642838.0
16	15	10	44	337	141.0	-152328.0	-2690.0	-5643532.0
16	15	10	44	338	142.0	-140279.0	-4310.0	-5644488.0
16	15	10	44	338	143.0	-120231.0	-4022.0	-5643672.0
16	15	10	44	338	144.0	-91071.0	-1362.0	-5642971.0
16	15	10	44	338	145.0	-54714.0	-86.0	-5643585.0
16	15	10	44	339	146.0	-25050.0	94.0	-5644724.0
16	15	10	44	339	147.0	-4109.0	-30.0	-5643927.0
16	15	10	44	339	148.0	13574.0	-543.0	-5643153.0
16	15	10	44	339	149.0	34565.0	-3034.0	-5643163.0
16	15	10	44	340	150.0	60531.0	-3526.0	-5644545.0
16	15	10	44	340	151.0	94271.0	-1005.0	-5644024.0
16	15	10	44	340	152.0	125096.0	301.0	-5643281.0
16	15	10	44	340	153.0	151918.0	277.0	-5643729.0
16	15	10	44	341	154.0	172809.0	259.0	-5644860.0
16	15	10	44	341	155.0	185835.0	208.0	-5644178.0
16	15	10	44	341	156.0	191579.0	-1964.0	-5643467.0
16	15	10	44	342	157.0	193624.0	-3925.0	-5644084.0
16	15	10	44	342	158.0	188326.0	-3494.0	-5644860.0
16	15	10	44	342	159.0	181489.0	-1174.0	-5644089.0
16	15	10	44	343	160.0	173492.0	-166.0	-5643351.0
16	15	10	44	343	161.0	156694.0	165.0	-5643997.0
16	15	10	44	343	162.0	139209.0	51.0	-5644779.0
16	15	10	44	344	163.0	122520.0	-245.0	-5644042.0
16	15	10	44	344	164.0	109240.0	-2732.0	-5643197.0
16	15	10	44	344	165.0	102076.0	-3040.0	-5643493.0
16	15	10	44	344	166.0	98127.0	-192.0	-5644547.0
16	15	10	44	345	167.0	102097.0	1399.0	-5643978.0
16	15	10	44	345	168.0	96346.0	1784.0	-5643141.0
16	15	10	44	345	169.0	84011.0	2275.0	-5643705.0
16	15	10	44	346	170.0	75298.0	2508.0	-5644575.0
16	15	10	44	346	171.0	73112.0	1213.0	-5643904.0
16	15	10	44	346	172.0	75116.0	268.0	-5643192.0
16	15	10	44	346	173.0	82629.0	1629.0	-5644344.0
16	15	10	44	347	174.0	90645.0	5006.0	-5644796.0
16	15	10	44	347	175.0	90474.0	7257.0	-5644039.0
16	15	10	44	347	176.0	85706.0	8639.0	-5643356.0
16	15	10	44	348	177.0	87804.0	9241.0	-5644461.0
16	15	10	44	348	178.0	84891.0	9431.0	-5644601.0
16	15	10	44	521	179.0	89141.0	7941.0	-5643828.0
16	15	10	44	521	180.0	99478.0	8811.0	-5643006.0
16	15	10	44	521	181.0	98419.0	13038.0	-5643917.0
16	15	10	44	522	182.0	93364.0	15748.0	-5644604.0
16	15	10	44	522	183.0	79698.0	16971.0	-5643912.0
16	15	10	44	522	184.0	58813.0	18547.0	-5643127.0
16	15	10	44	523	185.0	29085.0	20214.0	-5644012.0
16	15	10	44	523	186.0	9324.0	19659.0	-5644677.0
16	15	10	44	523	187.0	-2363.0	19573.0	-5643977.0
16	15	10	44	523	188.0	-3633.0	21764.0	-5643314.0
16	15	10	44	524	189.0	9188.0	26451.0	-5644122.0
16	15	10	44	524	190.0	-5406.0	28074.0	-5644029.0
16	15	10	44	524	191.0	-44463.0	28943.0	-5643427.0
16	15	10	44	524	192.0	-48358.0	30385.0	-5644424.0
16	15	10	44	525	193.0	-63031.0	30899.0	-5644924.0
16	15	10	44	525	194.0	-94145.0	29893.0	-5644049.0
16	15	10	44	525	195.0	-100514.0	30485.0	-5643311.0
16	15	10	44	526	196.0	-85654.0	34056.0	-5643907.0
16	15	10	44	527	197.0	-68884.0	36392.0	-5644717.0
16	15	10	44	527	198.0	-44301.0	37339.0	-5643946.0
16	15	10	44	527	199.0	-5711.0	38006.0	-5643297.0
16	15	10	44	527	200.0	41636.0	38481.0	-5644204.0
16	15	10	44	528	201.0	105843.0	37383.0	-5644797.0
16	15	10	44	528	202.0	168758.0	38680.0	-5643976.0
16	15	10	44	528	203.0	225902.0	40924.0	-5643407.0
16	15	10	44	528	204.0	265521.0	41092.0	-5644334.0
16	15	10	44	529	205.0	287550.0	41101.0	-5644542.0
16	15	10	44	529	206.0	284959.0	41236.0	-5643726.0
16	15	10	44	529	207.0	254751.0	41321.0	-5643312.0
16	15	10	44	529	208.0	202999.0	40516.0	-5644512.0
16	15	10	44	530	209.0	126509.0	40731.0	-5644393.0
16	15	10	44	530	210.0	29279.0	40378.0	-5643567.0
16	15	10	44	530	211.0	-78009.0	40163.0	-5643061.0
16	15	10	44	530	215.0	-965527.0	37301.0	-5642855.0
16	15	10	44	531	216.0	-958588.0	34853.0	-5644037.0
16	15	10	44	532	217.0	-395193.0	32583.0	-5644536.0
16	15	10	44	532	218.0	266164.0	30959.0	-5643851.0
16	15	10	44	532	219.0	516036.0	29513.0	-5643345.0
16	15	10	44	533	220.0	444358.0	28146.0	-5644700.0
16	15	10	44	533	221.0	370386.0	27448.0	-5644673.0
16	15	10	44	533	222.0	297741.0	28971.0	-5643905.0
16	15	10	44	534	223.0	195739.0	28772.0	-5643781.0
16	15	10	44	534	224.0	114019.0	25364.0	-5645287.0
16	15	10	44	534	225.0	11663.0	25218.0	-5644829.0
16	15	10	44	534	226.0	-73230.0	26528.0	-5644048.0
16	15	10	44	535	227.0	-106117.0	25608.0	-5643361.0
16	15	10	44	535	228.0	-133496.0	24401.0	-5644472.0
16	15	10	44	535	229.0	-151976.0	23660.0	-5644481.0
16	15	10	44	536	230.0	-132779.0	22340.0	-5643742.0
16	15	10	44	536	231.0	-110212.0	18055.0	-5643065.0
16	15	10	44	536	232.0	-111348.0	15504.0	-5644004.0
16	15	10	44	536	233.0	-124368.0	15206.0	-5643984.0
16	15	10	44	537	234.0	-149382.0	16417.0	-5643361.0
16	15	10	44	537	235.0	-220666.0	16053.0	-5644126.0
16	15	10	44	537	236.0	-307357.0	14792.0	-5644632.0
16	15	10	44	537	237.0	-339279.0	13826.0	-5643824.0
16	15	10	44	538	238.0	-286320.0	11479.0	-5643319.0
16	15	10	44	538	239.0	-192556.0	8069.0	-5644462.0
16	15	10	44	538	240.0	-120481.0	6945.0	-5644837.0
16	15	10	44	538	241.0	-94957.0	8275.0	-5643972.0
16	15	10	44	538	242.0	-97916.0	7981.0	-5643301.0
16	15	10	44	539	243.0	-98476.0	6637.0	-5643913.0
16	15	10	44	539	244.0	-96466.0	6299.0	-5644544.0
16	15	10	44	539	245.0	-74694.0	5062.0	-5643731.0
16	15	10	44	540	246.0	-33147.0	1511.0	-5643013.0
16	15	10	44	540	247.0	23550.0	-1075.0	-5643721.0
16	15	10	44	540	248.0	73949.0	-1577.0	-5644611.0
16	15	10	44	540	249.0	114524.0	366.0	-5643846.0
16	15	10	44	541	250.0	140753.0	279.0	-5643270.0
16	15	10	44	541	251.0	166494.0	-628.0	-5644332.0
16	15	10	44	542	252.0	196165.0	-1352.0	-5644631.0
16	15	10	44	543	253.0	209831.0	-2977.0	-5643854.0
16	15	10	44	543	254.0	216588.0	-6252.0	-5643219.0
16	15	10	44	543	255.0	220431.0	-6755.0	-5644125.0
16	15	10	44	544	0.0	219979.0	-4950.0	-5644691.0
16	15	10	44	544	1.0	216854.0	-4773.0	-5643869.0
16	15	10	44	544	2.0	210501.0	-5667.0	-5643126.0
16	15	10	44	544	3.0	214921.0	-6308.0	-5643674.0
16	15	10	44	545	4.0	217233.0	-6774.0	-5644344.0
16	15	10	44	545	5.0	221980.0	-9654.0	-5643609.0
16	15	10	44	545	6.0	225304.0	-11624.0	-5642816.0
16	15	10	44	545	7.0	221724.0	-11378.0	-5643374.0
16	15	10	44	546	8.0	220318.0	-9500.0	-5644290.0
16	15	10	44	546	9.0	214098.0	-9276.0	-5643617.0
16	15	10	44	547	10.0	208778.0	-9654.0	-5642903.0
16	15	10	44	547	11.0	200538.0	-10107.0	-5643923.0
16	15	10	44	548	12.0	184173.0	-11732.0	-5644504.0
16	15	10	44	548	13.0	173799.0	-14504.0	-5643753.0
16	15	10	44	548	14.0	158461.0	-14915.0	-5643031.0
16	15	10	44	713	15.0	136354.0	-12558.0	-5644069.0
16	15	10	44	714	16.0	108611.0	-12562.0	-5644647.0
16	15	10	44	714	17.0	82616.0	-13037.0	-5643919.0
16	15	10	44	715	18.0	62718.0	-13178.0	-5643075.0
16	15	10	44	715	19.0	56645.0	-13772.0	-5643688.0
16	15	10	44	716	20.0	49551.0	-16501.0	-5644579.0
16	15	10	44	716	21.0	50624.0	-17899.0	-5643929.0
16	15	10	44	716	22.0	59749.0	-17477.0	-5643140.0
16	15	10	44	717	23.0	73320.0	-15494.0	-5644010.0
16	15	10	44	717	24.0	86477.0	-14945.0	-5644627.0
16	15	10	44	717	25.0	94288.0	-15041.0	-5643909.0
16	15	10	44	718	26.0	94699.0	-15009.0	-5643153.0
16	15	10	44	718	27.0	83576.0	-15856.0	-5644219.0
16	15	10	44	718	28.0	69824.0	-18112.0	-5644796.0
16	15	10	44	718	29.0	50728.0	-17723.0	-5644107.0
16	15	10	44	719	30.0	42918.0	-15147.0	-5643443.0
16	15	10	44	719	31.0	31713.0	-14296.0	-5644503.0
16	15	10	44	719	32.0	24759.0	-14072.0	-5644671.0
16	15	10	44	719	33.0	25893.0	-14701.0	-5643916.0
16	15	10	44	720	34.0	33979.0	-14445.0	-5643137.0
16	15	10	44	720	35.0	39366.0	-16446.0	-5643629.0
16	15	10	44	720	36.0	39419.0	-17837.0	-5643818.0
16	15	10	44	720	37.0	41135.0	-17046.0	-5643099.0
16	15	10	44	721	38.0	47194.0	-14360.0	-5643378.0
16	15	10	44	721	39.0	52129.0	-13577.0	-5644364.0
16	15	10	44	721	40.0	52318.0	-13131.0	-5643649.0
16	15	10	44	721	41.0	48187.0	-12742.0	-5642884.0
16	15	10	44	722	42.0	36459.0	-13845.0	-5643323.0
16	15	10	44	722	43.0	21783.0	-15963.0	-5644483.0
16	15	10	44	722	44.0	14218.0	-15201.0	-5643785.0
16	15	10	44	723	45.0	10670.0	-11781.0	-5643062.0
16	15	10	44	723	46.0	8969.0	-10744.0	-5643850.0
16	15	10	44	723	47.0	13597.0	-10399.0	-5644527.0
16	15	10	44	723	48.0	18533.0	-9782.0	-5643769.0
16	15	10	44	724	49.0	26828.0	-9706.0	-5643073.0
16	15	10	44	724	50.0	31115.0	-11814.0	-5643889.0
16	15	10	44	724	51.0	27103.0	-12960.0	-5644535.0
16	15	10	44	725	52.0	14704.0	-11246.0	-5643791.0
16	15	10	44	725	53.0	11296.0	-8274.0	-5642976.0
16	15	10	44	725	54.0	4856.0	-7445.0	-5643594.0
16	15	10	44	726	55.0	-6249.0	-7551.0	-5644232.0
16	15	10	44	726	56.0	-17922.0	-6504.0	-5643529.0
16	15	10	44	726	57.0	-25048.0	-7185.0	-5642754.0
16	15	10	44	726	58.0	-28502.0	-9162.0	-5643625.0
16	15	10	44	727	59.0	-24894.0	-8615.0	-5644263.0
16	15	10	44	727	60.0	-19241.0	-6221.0	-5643564.0
16	15	10	44	727	61.0	-21111.0	-5238.0	-5643031.0
16	15	10	44	728	62.0	-31051.0	-4503.0	-5644391.0
16	15	10	44	728	63.0	-47306.0	-4297.0	-5644347.0
16	15	10	44	728	64.0	-61189.0	-4501.0	-5643580.0
16	15	10	44	729	65.0	-72509.0	-6508.0	-5642936.0
16	15	10	44	729	66.0	-84887.0	-7375.0	-5644202.0
16	15	10	44	729	67.0	-100022.0	-6104.0	-5644401.0
16	15	10	44	729	68.0	-108172.0	-3154.0	-5643646.0
16	15	10	44	730	69.0	-113954.0	-2536.0	-5642960.0
16	15	10	44	730	70.0	-124919.0	-2245.0	-5644040.0
16	15	10	44	730	71.0	-133702.0	-2061.0	-5644222.0
16	15	10	44	731	72.0	-138854.0	-3409.0	-5643487.0
16	15	10	44	731	73.0	-145509.0	-5299.0	-5642816.0
16	15	10	44	731	74.0	-147821.0	-4830.0	-5643605.0
16	15	10	44	732	75.0	-149114.0	-2181.0	-5643661.0
16	15	10	44	732	76.0	-150954.0	-1300.0	-5643142.0
16	15	10	44	732	77.0	-146157.0	-934.0	-5644234.0
16	15	10	44	733	78.0	-119307.0	-1323.0	-5644588.0
16	15	10	44	733	79.0	-76664.0	-1726.0	-5643719.0
16	15	10	44	733	80.0	-30788.0	-3648.0	-5643117.0
16	15	10	44	734	81.0	2381.0	-4257.0	-5644102.0
16	15	10	44	734	82.0	19979.0	-3382.0	-5644566.0
16	15	10	44	734	83.0	18868.0	-580.0	-5643714.0
16	15	10	44	734	84.0	14558.0	-219.0	-5643114.0
16	15	10	44	735	85.0	20643.0	-427.0	-5644011.0
16	15	10	44	735	86.0	35382.0	-182.0	-5644186.0
16	15	10	44	735	87.0	53879.0	-1527.0	-5643354.0
16	15	10	44	736	88.0	75186.0	-3751.0	-5642676.0
16	15	10	44	736	89.0	89728.0	-3174.0	-5643582.0
16	15	10	44	736	90.0	111391.0	-109.0	-5644117.0
16	15	10	44	737	91.0	150254.0	163.0	-5643351.0
16	15	10	44	737	92.0	192818.0	-229.0	-5642902.0
16	15	10	44	737	93.0	223754.0	-721.0	-5644369.0
16	15	10	44	738	94.0	232810.0	-1221.0	-5644423.0
16	15	10	44	738	95.0	203149.0	-3557.0	-5643607.0
16	15	10	44	738	96.0	160529.0	-4754.0	-5642969.0
16	15	10	44	739	97.0	149033.0	-2885.0	-5644142.0
16	15	10	44	739	98.0	101401.0	-139.0	-5644377.0
16	15	10	44	739	99.0	-259425.0	381.0	-5643549.0
16	15	10	44	740	100.0	-846215.0	21.0	-5642754.0
16	15	10	44	740	101.0	-1193816.0	-924.0	-5643792.0
16	15	10	44	740	102.0	-1128717.0	-2380.0	-5644122.0
16	15	10	44	741	103.0	-813591.0	-4162.0	-5643416.0
16	15	10	44	741	104.0	-374701.0	-1795.0	-5642740.0
16	15	10	44	741	105.0	41398.0	-1723.0	-5643861.0
16	15	10	44	914	106.0	272241.0	-1306.0	-5644236.0
16	15	10	44	915	107.0	330807.0	-1003.0	-5643503.0
16	15	10	44	915	108.0	376641.0	-1508.0	-5643017.0
16	15	10	44	915	109.0	430951.0	-1579.0	-5644274.0
16	15	10	44	916	110.0	445028.0	-4101.0	-5644056.0
16	15	10	44	916	111.0	447094.0	-4957.0	-5643311.0
16	15	10	44	916	112.0	312146.0	-5158.0	-5643074.0
16	15	10	44	917	113.0	43085.0	-5169.0	-5644637.0
16	15	10	44	917	114.0	-170040.0	-2452.0	-5644261.0
16	15	10	44	918	115.0	-287055.0	-1515.0	-5643459.0
16	15	10	44	918	116.0	-280297.0	-1537.0	-5643146.0
16	15	10	44	919	117.0	-148122.0	-3027.0	-5644795.0
16	15	10	44	919	118.0	29719.0	-4787.0	-5644600.0
16	15	10	44	919	119.0	176063.0	-2856.0	-5643819.0
16	15	10	44	920	120.0	235436.0	-1081.0	-5643309.0
16	15	10	44	920	121.0	163565.0	-826.0	-5644650.0
16	15	10	44	921	122.0	27353.0	-1011.0	-5644636.0
16	15	10	44	921	123.0	-30239.0	-1073.0	-5643855.0
16	15	10	44	921	124.0	-3169.0	-1819.0	-5643609.0
16	15	10	44	922	125.0	37026.0	-4065.0	-5645006.0
16	15	10	44	922	126.0	52229.0	-5045.0	-5644642.0
16	15	10	44	922	127.0	42477.0	-5035.0	-5643820.0
16	15	10	44	922	128.0	-1184.0	-2555.0	-5643421.0
16	15	10	44	923	129.0	-75900.0	-1591.0	-5644619.0
16	15	10	44	923	130.0	-158028.0	-1896.0	-5644349.0
16	15	10	44	923	131.0	-224020.0	-2170.0	-5643496.0
16	15	10	44	924	132.0	-271159.0	-3818.0	-5643229.0
16	15	10	44	924	133.0	-271902.0	-5523.0	-5644707.0
16	15	10	44	924	134.0	-251806.0	-4876.0	-5644560.0
16	15	10	44	925	135.0	-235333.0	-2511.0	-5643719.0
16	15	10	44	925	136.0	-218552.0	-1764.0	-5643334.0
16	15	10	44	926	137.0	-205362.0	-1630.0	-5644568.0
16	15	10	44	926	138.0	-193284.0	-1922.0	-5644495.0
16	15	10	44	926	139.0	-183111.0	-1694.0	-5643654.0
16	15	10	44	927	140.0	-187071.0	-3919.0	-5643367.0
16	15	10	44	927	141.0	-187742.0	-4837.0	-5644654.0
16	15	10	44	927	142.0	-177097.0	-2732.0	-5644453.0
16	15	10	44	927	143.0	-165909.0	-1402.0	-5643600.0
16	15	10	44	928	144.0	-150124.0	-1324.0	-5643706.0
16	15	10	44	928	145.0	-124347.0	-877.0	-5645055.0
16	15	10	44	928	146.0	-101134.0	-394.0	-5644642.0
16	15	10	44	929	147.0	-87152.0	-1913.0	-5643744.0
16	15	10	44	929	148.0	-67089.0	-3726.0	-5643475.0
16	15	10	44	929	149.0	-44571.0	-3610.0	-5644716.0
16	15	10	44	929	150.0	-23872.0	-1607.0	-5644529.0
16	15	10	44	930	151.0	2521.0	-166.0	-5643690.0
16	15	10	44	930	152.0	18358.0	-31.0	-5643609.0
16	15	10	44	930	153.0	26314.0	441.0	-5645132.0
16	15	10	44	930	154.0	46966.0	-151.0	-5644916.0
16	15	10	44	931	155.0	74843.0	-192.0	-5644046.0
16	15	10	44	931	156.0	94746.0	213.0	-5644062.0
16	15	10	44	932	157.0	105189.0	329.0	-5645521.0
16	15	10	44	932	158.0	104016.0	383.0	-5645200.0
16	15	10	44	932	159.0	99555.0	546.0	-5644331.0
16	15	10	44	932	160.0	93278.0	439.0	-5644132.0
16	15	10	44	933	161.0	95379.0	834.0	-5645376.0
16	15	10	44	933	162.0	100009.0	-841.0	-5645057.0
16	15	10	44	933	163.0	104608.0	-3261.0	-5644176.0
16	15	10	44	933	164.0	109448.0	-3561.0	-5643689.0
16	15	10	44	934	165.0	123567.0	-3539.0	-5645000.0
16	15	10	44	934	166.0	136245.0	-3312.0	-5645018.0
16	15	10	44	934	167.0	139874.0	-2893.0	-5644225.0
16	15	10	44	934	168.0	148510.0	-284.0	-5643663.0
16	15	10	44	935	169.0	161569.0	1117.0	-5644835.0
16	15	10	44	935	170.0	171611.0	-1101.0	-5644957.0
16	15	10	44	935	171.0	178733.0	1065.0	-5644174.0
16	15	10	44	936	172.0	179488.0	1981.0	-5644285.0
16	15	10	44	936	173.0	173069.0	2003.0	-5645500.0
16	15	10	44	936	174.0	162722.0	2734.0	-5644894.0
16	15	10	44	936	175.0	148729.0	3197.0	-5644120.0
16	15	10	44	937	176.0	131353.0	3475.0	-5644096.0
16	15	10	44	937	177.0	115060.0	2941.0	-5645327.0
16	15	10	44	937	178.0	95537.0	2176.0	-5644771.0
16	15	10	44	938	179.0	78706.0	2793.0	-5643967.0
16	15	10	44	938	180.0	67855.0	5078.0	-5643683.0
16	15	10	44	938	181.0	62874.0	8747.0	-5645064.0
16	15	10	44	938	182.0	64904.0	10550.0	-5644670.0
16	15	10	44	939	183.0	73521.0	11043.0	-5643917.0
16	15	10	44	939	184.0	70724.0	12306.0	-5643714.0
16	15	10	44	939	185.0	68831.0	11608.0	-5644952.0
16	15	10	44	939	186.0	80718.0	13174.0	-5644477.0
16	15	10	44	940	187.0	91372.0	18164.0	-5643824.0
16	15	10	44	940	188.0	77495.0	20335.0	-5644488.0
16	15	10	44	940	189.0	58103.0	21808.0	-5645104.0
16	15	10	44	941	190.0	39794.0	24168.0	-5644276.0
16	15	10	44	941	191.0	23211.0	25693.0	-5643616.0
16	15	10	44	942	192.0	9782.0	25798.0	-5644443.0
16	15	10	44	942	193.0	-4596.0	26014.0	-5645258.0
16	15	10	44	942	194.0	-23030.0	27844.0	-5644422.0
16	15	10	44	943	195.0	-58739.0	32694.0	-5643672.0
16	15	10	44	943	196.0	-104115.0	35081.0	-5644127.0
16	15	10	44	943	197.0	-92177.0	36079.0	-5645050.0
16	15	10	44	944	198.0	-37499.0	37681.0	-5644308.0
16	15	10	44	944	199.0	-11655.0	38610.0	-5643581.0
16	15	10	45	144	200.0	-7011.0	37098.0	-5644172.0
16	15	10	45	144	201.0	-1988.0	37924.0	-5644952.0
16	15	10	45	144	202.0	-3872.0	40952.0	-5644182.0
16	15	10	45	145	203.0	-4218.0	42611.0	-5643734.0
16	15	10	45	145	204.0	-1187.0	43641.0	-5645091.0
16	15	10	45	145	205.0	5640.0	44809.0	-5645156.0
16	15	10	45	146	206.0	8994.0	45563.0	-5644325.0
16	15	10	45	146	207.0	10896.0	45861.0	-5643742.0
16	15	10	45	146	208.0	24426.0	46902.0	-5645061.0
16	15	10	45	146	209.0	48400.0	48138.0	-5645465.0
16	15	10	45	147	210.0	71302.0	48270.0	-5644683.0
16	15	10	45	147	211.0	94001.0	47614.0	-5643966.0
16	15	10	45	147	212.0	111275.0	47558.0	-5644913.0
16	15	10	45	148	213.0	119611.0	48066.0	-5645472.0
16	15	10	45	148	214.0	112723.0	46466.0	-5644709.0
16	15	10	45	148	215.0	104809.0	43447.0	-5643996.0
16	15	10	45	148	216.0	95823.0	42432.0	-5645061.0
16	15	10	45	149	217.0	73732.0	41806.0	-5645421.0
16	15	10	45	149	218.0	43193.0	41048.0	-5644661.0
16	15	10	45	149	219.0	7825.0	40094.0	-5644076.0
16	15	10	45	150	220.0	-17153.0	39912.0	-5645336.0
16	15	10	45	150	221.0	-73139.0	41678.0	-5645458.0
16	15	10	45	150	222.0	-216880.0	39882.0	-5644681.0
16	15	10	45	150	223.0	-468672.0	39492.0	-5644109.0
16	15	10	45	151	224.0	-778479.0	39413.0	-5645465.0
16	15	10	45	151	225.0	-774226.0	37902.0	-5645457.0
16	15	10	45	151	226.0	-188177.0	37242.0	-5644746.0
16	15	10	45	152	227.0	387613.0	36418.0	-5644038.0
16	15	10	45	152	228.0	485893.0	34345.0	-5645074.0
16	15	10	45	152	229.0	372886.0	32327.0	-5645358.0
16	15	10	45	152	230.0	288886.0	28806.0	-5644613.0
16	15	10	45	153	231.0	170476.0	26935.0	-5643940.0
16	15	10	45	153	232.0	61279.0	26011.0	-5644872.0
16	15	10	45	153	233.0	2696.0	27143.0	-5644831.0
16	15	10	45	154	234.0	-79909.0	26840.0	-5644152.0
16	15	10	45	154	235.0	-154741.0	25274.0	-5644722.0
16	15	10	45	154	236.0	-210477.0	23674.0	-5645509.0
16	15	10	45	155	237.0	-290534.0	20345.0	-5644731.0
16	15	10	45	155	238.0	-362329.0	17325.0	-5644074.0
16	15	10	45	155	239.0	-385146.0	17509.0	-5644826.0
16	15	10	45	156	240.0	-357810.0	18291.0	-5645558.0
16	15	10	45	156	241.0	-258977.0	17496.0	-5644744.0
16	15	10	45	156	242.0	-128829.0	16253.0	-5644066.0
16	15	10	45	157	243.0	-20822.0	15114.0	-5644691.0
16	15	10	45	157	244.0	32186.0	12653.0	-5645571.0
16	15	10	45	157	245.0	46503.0	8998.0	-5644793.0
16	15	10	45	158	246.0	39114.0	7729.0	-5644058.0
16	15	10	45	158	247.0	28249.0	9019.0	-5644493.0
16	15	10	45	158	248.0	37964.0	8975.0	-5645367.0
16	15	10	45	159	249.0	56286.0	7737.0	-5644630.0
16	15	10	45	159	250.0	63884.0	6499.0	-5644116.0
16	15	10	45	159	251.0	58525.0	5612.0	-5645252.0
16	15	10	45	160	252.0	42152.0	2282.0	-5645412.0
16	15	10	45	160	253.0	30197.0	-522.0	-5644572.0
16	15	10	45	161	254.0	26839.0	-1145.0	-5644031.0
16	15	10	45	161	255.0	27613.0	749.0	-5645152.0
16	15	10	45	162	0.0	45806.0	308.0	-5645293.0
16	15	10	45	162	1.0	72694.0	-58.0	-5644473.0
16	15	10	45	163	2.0	95196.0	-1027.0	-5643811.0
16	15	10	45	163	3.0	118249.0	-2531.0	-5644866.0
16	15	10	45	163	4.0	146819.0	-3324.0	-5645274.0
16	15	10	45	164	5.0	180504.0	-3964.0	-5644516.0
16	15	10	45	164	6.0	206089.0	-4659.0	-5643862.0
16	15	10	45	164	7.0	227302.0	-5620.0	-5644961.0
16	15	10	45	165	8.0	239806.0	-6506.0	-5645183.0
16	15	10	45	165	9.0	252653.0	-7378.0	-5644426.0
16	15	10	45	165	10.0	278184.0	-8703.0	-5643917.0
16	15	10	45	166	11.0	293892.0	-10955.0	-5645252.0
16	15	10	45	166	12.0	304161.0	-12953.0	-5645231.0
16	15	10	45	167	13.0	329994.0	-13401.0	-5644450.0
16	15	10	45	167	14.0	348753.0	-13851.0	-5643899.0
16	15	10	45	168	15.0	350803.0	-14716.0	-5645132.0
16	15	10	45	168	16.0	343334.0	-15007.0	-5645061.0
16	15	10	45	168	17.0	338785.0	-13130.0	-5644289.0
16	15	10	45	169	18.0	323367.0	-13722.0	-5643959.0
16	15	10	45	170	19.0	284711.0	-15927.0	-5645204.0
16	15	10	45	170	20.0	224339.0	-14130.0	-5644747.0
16	15	10	45	171	21.0	159864.0	-13919.0	-5643988.0
16	15	10	45	171	22.0	103024.0	-14523.0	-5643496.0
16	15	10	45	172	23.0	48637.0	-14871.0	-5644338.0
16	15	10	45	172	24.0	-695.0	-15490.0	-5643935.0
16	15	10	45	172	25.0	-49017.0	-15956.0	-5643516.0
16	15	10	45	173	26.0	-101837.0	-18387.0	-5644729.0
16	15	10	45	173	27.0	-146807.0	-20232.0	-5644813.0
16	15	10	45	174	28.0	-174972.0	-20710.0	-5643965.0
16	15	10	45	174	29.0	-183000.0	-18773.0	-5643711.0
16	15	10	45	174	30.0	-169656.0	-17768.0	-5644944.0
16	15	10	45	175	31.0	-138987.0	-17484.0	-5644769.0
16	15	10	45	175	32.0	-108497.0	-17102.0	-5643884.0
16	15	10	45	175	33.0	-83703.0	-18508.0	-5643765.0
16	15	10	45	176	34.0	-60046.0	-21112.0	-5645057.0
16	15	10	45	176	35.0	-47261.0	-21221.0	-5644738.0
16	15	10	45	176	36.0	-43976.0	-18472.0	-5643864.0
16	15	10	45	177	37.0	-31465.0	-18190.0	-5643760.0
16	15	10	45	177	38.0	-15547.0	-18618.0	-5645028.0
16	15	10	45	177	39.0	-9072.0	-17294.0	-5644646.0
16	15	10	45	178	40.0	-18594.0	-17229.0	-5643825.0
16	15	10	45	178	41.0	-27167.0	-19646.0	-5643392.0
16	15	10	45	178	42.0	-37731.0	-21019.0	-5644672.0
16	15	10	45	179	43.0	-50732.0	-20109.0	-5644744.0
16	15	10	45	179	44.0	-61220.0	-17279.0	-5643911.0
16	15	10	45	179	45.0	-70525.0	-16992.0	-5643797.0
16	15	10	45	180	46.0	-65416.0	-17253.0	-5645069.0
16	15	10	45	180	47.0	-55864.0	-16777.0	-5644654.0
16	15	10	45	180	48.0	-48179.0	-17557.0	-5643873.0
16	15	10	45	181	49.0	-33802.0	-19526.0	-5644198.0
16	15	10	45	181	50.0	-9657.0	-19144.0	-5645147.0
16	15	10	45	182	51.0	19506.0	-15811.0	-5644416.0
16	15	10	45	182	52.0	38560.0	-14582.0	-5643667.0
16	15	10	45	182	53.0	50999.0	-14830.0	-5643434.0
16	15	10	45	183	54.0	61590.0	-14477.0	-5644182.0
16	15	10	45	183	55.0	55608.0	-13961.0	-5643603.0
16	15	10	45	184	56.0	46726.0	-15971.0	-5643294.0
16	15	10	45	184	57.0	57664.0	-17176.0	-5644527.0
16	15	10	45	184	58.0	69404.0	-15549.0	-5644314.0
16	15	10	45	185	59.0	88294.0	-12910.0	-5643529.0
16	15	10	45	185	60.0	103831.0	-12216.0	-5643667.0
16	15	10	45	185	61.0	111680.0	-11646.0	-5645167.0
16	15	10	45	186	62.0	109674.0	-10682.0	-5644760.0
16	15	10	45	186	63.0	83323.0	-11529.0	-5643924.0
16	15	10	45	187	64.0	52869.0	-14134.0	-5643646.0
16	15	10	45	187	65.0	20979.0	-13851.0	-5644869.0
16	15	10	45	187	66.0	-13431.0	-10587.0	-5644642.0
16	15	10	45	188	67.0	-40048.0	-9192.0	-5643743.0
16	15	10	45	188	68.0	-58938.0	-9110.0	-5643709.0
16	15	10	45	189	69.0	-68894.0	-9106.0	-5644997.0
16	15	10	45	189	70.0	-73976.0	-8511.0	-5644658.0
16	15	10	45	189	71.0	-80085.0	-10353.0	-5643771.0
16	15	10	45	190	72.0	-91836.0	-11241.0	-5643293.0
16	15	10	45	190	73.0	-91341.0	-10288.0	-5644512.0
16	15	10	45	191	74.0	-97156.0	-7286.0	-5644704.0
16	15	10	45	191	75.0	-123987.0	-6419.0	-5643844.0
16	15	10	45	191	76.0	-140687.0	-6174.0	-5643632.0
16	15	10	45	192	77.0	-154005.0	-6085.0	-5645087.0
16	15	10	45	192	78.0	-169779.0	-7102.0	-5644961.0
16	15	10	45	192	79.0	-179495.0	-9347.0	-5644097.0
16	15	10	45	193	80.0	-185417.0	-8957.0	-5643629.0
16	15	10	45	193	81.0	-186009.0	-5881.0	-5644732.0
16	15	10	45	194	82.0	-173251.0	-5167.0	-5644722.0
16	15	10	45	194	83.0	-147338.0	-4439.0	-5643864.0
16	15	10	45	194	84.0	-125798.0	-4049.0	-5643350.0
16	15	10	45	195	85.0	-109493.0	-4033.0	-5644628.0
16	15	10	45	195	86.0	-86962.0	-6143.0	-5644618.0
16	15	10	45	195	87.0	-64336.0	-7109.0	-5643799.0
16	15	10	45	196	88.0	-45547.0	-5629.0	-5643452.0
16	15	10	45	196	89.0	-20833.0	-2463.0	-5644814.0
16	15	10	45	197	90.0	7973.0	-2181.0	-5644580.0
16	15	10	45	197	91.0	35414.0	-1822.0	-5643842.0
16	15	10	45	197	92.0	61913.0	-1877.0	-5643996.0
16	15	10	45	198	93.0	87203.0	-3086.0	-5645301.0
16	15	10	45	341	94.0	104791.0	-5519.0	-5644737.0
16	15	10	45	341	95.0	115448.0	-5248.0	-5643961.0
16	15	10	45	342	96.0	123372.0	-2611.0	-5643991.0
16	15	10	45	342	97.0	142971.0	-1537.0	-5645466.0
16	15	10	45	342	98.0	158089.0	-1913.0	-5644967.0
16	15	10	45	343	99.0	185818.0	-1849.0	-5644212.0
16	15	10	45	343	100.0	225020.0	-2515.0	-5643695.0
16	15	10	45	343	101.0	258421.0	-4814.0	-5644982.0
16	15	10	45	343	102.0	302053.0	-6100.0	-5644810.0
16	15	10	45	343	103.0	337211.0	-4757.0	-5644069.0
16	15	10	45	344	104.0	353373.0	-2647.0	-5644202.0
16	15	10	45	344	105.0	350023.0	-2094.0	-5645633.0
16	15	10	45	344	106.0	337073.0	-2337.0	-5645052.0
16	15	10	45	344	107.0	296549.0	-2504.0	-5644341.0
16	15	10	45	345	108.0	253236.0	-3806.0	-5644829.0
16	15	10	45	345	109.0	244599.0	-6206.0	-5645779.0
16	15	10	45	345	110.0	52898.0	-6264.0	-5645000.0
16	15	10	45	345	111.0	-495721.0	-4286.0	-5644237.0
16	15	10	45	346	112.0	-1065145.0	-3022.0	-5644853.0
16	15	10	45	346	113.0	-1236377.0	-3215.0	-5645726.0
16	15	10	45	346	114.0	-1015364.0	-3640.0	-5644972.0
16	15	10	45	346	115.0	-610791.0	-3695.0	-5644242.0
16	15	10	45	347	116.0	-158171.0	-6192.0	-5644779.0
16	15	10	45	347	117.0	167624.0	-7214.0	-5645673.0
16	15	10	45	347	118.0	280176.0	-6256.0	-5644994.0
16	15	10	45	347	119.0	319665.0	-3729.0	-5644233.0
16	15	10	45	347	120.0	412340.0	-2612.0	-5645036.0
16	15	10	45	348	121.0	467206.0	-2486.0	-5645926.0
16	15	10	45	348	122.0	450066.0	-2824.0	-5645221.0
16	15	10	45	348	123.0	401586.0	-3909.0	-5644502.0
16	15	10	45	348	124.0	245019.0	-6182.0	-5645467.0
16	15	10	45	349	125.0	-16720.0	-5619.0	-5645991.0
16	15	10	45	349	126.0	-229850.0	-2597.0	-5645215.0
16	15	10	45	349	127.0	-311214.0	-2270.0	-5644604.0
16	15	10	45	349	128.0	-267159.0	-2854.0	-5645883.0
16	15	10	45	350	129.0	-152891.0	-2616.0	-5646010.0
16	15	10	45	350	130.0	-11218.0	-2360.0	-5645213.0
16	15	10	45	350	131.0	104100.0	-4719.0	-5644377.0
16	15	10	45	351	132.0	123570.0	-6214.0	-5645353.0
16	15	10	45	351	133.0	36546.0	-5082.0	-5646079.0
16	15	10	45	352	134.0	-74412.0	-3021.0	-5645371.0
16	15	10	45	352	135.0	-117179.0	-2804.0	-5644566.0
16	15	10	45	352	136.0	-97679.0	-2876.0	-5645419.0
16	15	10	45	353	137.0	-83429.0	-2505.0	-5646031.0
16	15	10	45	353	138.0	-92461.0	-3561.0	-5645347.0
16	15	10	45	353	139.0	-126776.0	-5666.0	-5644656.0
16	15	10	45	354	140.0	-173207.0	-4842.0	-5645659.0
16	15	10	45	354	141.0	-234571.0	-1949.0	-5645911.0
16	15	10	45	354	142.0	-289314.0	-1369.0	-5645142.0
16	15	10	45	355	143.0	-321266.0	-1282.0	-5644521.0
16	15	10	45	355	144.0	-323211.0	-989.0	-5645427.0
16	15	10	45	355	145.0	-299123.0	-1812.0	-5645266.0
16	15	10	45	356	146.0	-259746.0	-4035.0	-5644559.0
16	15	10	45	356	147.0	-223773.0	-5412.0	-5644827.0
16	15	10	45	356	148.0	-180311.0	-3742.0	-5645851.0
16	15	10	45	356	149.0	-133611.0	-1437.0	-5645144.0
16	15	10	45	357	150.0	-110079.0	-830.0	-5644431.0
16	15	10	45	357	151.0	-108039.0	-225.0	-5644883.0
16	15	10	45	357	152.0	-126253.0	-166.0	-5645804.0
16	15	10	45	358	153.0	-147681.0	-1949.0	-5645062.0
16	15	10	45	358	154.0	-158713.0	-2752.0	-5644397.0
16	15	10	45	358	155.0	-168791.0	-241.0	-5645091.0
16	15	10	45	359	156.0	-162369.0	-114.0	-5645757.0
16	15	10	45	359	157.0	-149510.0	-109.0	-5644932.0
16	15	10	45	359	158.0	-148882.0	-224.0	-5644478.0
16	15	10	45	359	159.0	-137566.0	-340.0	-5645731.0
16	15	10	45	360	160.0	-124826.0	-597.0	-5645782.0
16	15	10	45	360	161.0	-107097.0	-3150.0	-5644907.0
16	15	10	45	360	162.0	-78131.0	-4283.0	-5644242.0
16	15	10	45	361	163.0	-46241.0	-4430.0	-5645075.0
16	15	10	45	362	164.0	-13564.0	-4132.0	-5645574.0
16	15	10	45	362	165.0	17291.0	-1866.0	-5644784.0
16	15	10	45	363	166.0	48471.0	-851.0	-5644161.0
16	15	10	45	363	167.0	73128.0	-654.0	-5645149.0
16	15	10	45	363	168.0	99092.0	-1601.0	-5645291.0
16	15	10	45	364	169.0	124351.0	-3296.0	-5644527.0
16	15	10	45	364	170.0	134464.0	-732.0	-5644067.0
16	15	10	45	365	171.0	131443.0	724.0	-5645331.0
16	15	10	45	365	172.0	133324.0	953.0	-5645175.0
16	15	10	45	365	173.0	128435.0	1213.0	-5644361.0
16	15	10	45	532	174.0	122256.0	1084.0	-5644462.0
16	15	10	45	533	175.0	112896.0	569.0	-5645730.0
16	15	10	45	533	176.0	100422.0	-1908.0	-5645153.0
16	15	10	45	533	177.0	95259.0	-2842.0	-5644384.0
16	15	10	45	534	178.0	95988.0	-1959.0	-5644117.0
16	15	10	45	534	179.0	101778.0	1131.0	-5644866.0
16	15	10	45	535	180.0	104146.0	2244.0	-5644267.0
16	15	10	45	535	181.0	100823.0	2766.0	-5643677.0
16	15	10	45	535	182.0	100636.0	3389.0	-5644758.0
16	15	10	45	535	183.0	107527.0	2063.0	-5645063.0
16	15	10	45	536	184.0	121313.0	243.0	-5644207.0
16	15	10	45	536	185.0	132461.0	1742.0	-5643768.0
16	15	10	45	536	186.0	142023.0	4550.0	-5644894.0
16	15	10	45	537	187.0	142396.0	5551.0	-5644900.0
16	15	10	45	537	188.0	147028.0	6465.0	-5644056.0
16	15	10	45	537	189.0	155321.0	7261.0	-5644265.0
16	15	10	45	538	190.0	164172.0	7725.0	-5645518.0
16	15	10	45	538	191.0	174856.0	6433.0	-5645036.0
16	15	10	45	538	192.0	178713.0	6805.0	-5644180.0
16	15	10	45	538	193.0	181321.0	9399.0	-5644016.0
16	15	10	45	539	194.0	179166.0	12673.0	-5645271.0
16	15	10	45	539	195.0	173459.0	14709.0	-5644970.0
16	15	10	45	539	196.0	158134.0	16205.0	-5644049.0
16	15	10	45	539	197.0	138256.0	17386.0	-5644006.0
16	15	10	45	540	198.0	115190.0	17645.0	-5645303.0
16	15	10	45	540	199.0	95478.0	17129.0	-5644937.0
16	15	10	45	540	200.0	113833.0	19762.0	-5644062.0
16	15	10	45	541	201.0	140151.0	24240.0	-5643669.0
16	15	10	45	541	202.0	69601.0	26770.0	-5644824.0
16	15	10	45	542	203.0	-22322.0	28459.0	-5644714.0
16	15	10	45	542	204.0	-48091.0	29809.0	-5643878.0
16	15	10	45	542	205.0	-44936.0	31630.0	-5644348.0
16	15	10	45	543	206.0	-47344.0	33425.0	-5645310.0
16	15	10	45	543	207.0	-58586.0	35699.0	-5644689.0
16	15	10	45	543	208.0	-66611.0	36803.0	-5643834.0
16	15	10	45	544	209.0	-61537.0	38239.0	-5644414.0
16	15	10	45	544	210.0	-54567.0	39738.0	-5645559.0
16	15	10	45	545	211.0	-47779.0	41306.0	-5644901.0
16	15	10	45	545	212.0	-36001.0	43232.0	-5644054.0
16	15	10	45	545	213.0	-22834.0	42243.0	-5643975.0
16	15	10	45	546	214.0	-2889.0	41089.0	-5645384.0
16	15	10	45	546	215.0	29959.0	41761.0	-5644995.0
16	15	10	45	546	216.0	70968.0	43040.0	-5644192.0
16	15	10	45	547	217.0	106985.0	43729.0	-5643918.0
16	15	10	45	547	218.0	141540.0	44237.0	-5645286.0
16	15	10	45	547	219.0	173211.0	46414.0	-5644951.0
16	15	10	45	548	220.0	199553.0	48850.0	-5644173.0
16	15	10	45	548	221.0	230172.0	48186.0	-5644232.0
16	15	10	45	548	222.0	247106.0	49904.0	-5645306.0
16	15	10	45	549	223.0	242435.0	49934.0	-5644677.0
16	15	10	45	549	224.0	225505.0	50041.0	-5643905.0
16	15	10	45	549	225.0	193731.0	49571.0	-5644080.0
16	15	10	45	550	226.0	158101.0	49231.0	-5645196.0
16	15	10	45	550	227.0	121004.0	48421.0	-5644488.0
16	15	10	45	550	228.0	77051.0	46105.0	-5643741.0
16	15	10	45	551	229.0	26242.0	43878.0	-5644161.0
16	15	10	45	551	230.0	-32967.0	42824.0	-5645408.0
16	15	10	45	552	231.0	-89629.0	43312.0	-5644710.0
16	15	10	45	552	232.0	-153776.0	44845.0	-5643974.0
16	15	10	45	553	233.0	-216566.0	43764.0	-5644369.0
16	15	10	45	553	234.0	-273250.0	42686.0	-5645545.0
16	15	10	45	553	235.0	-400095.0	41360.0	-5644828.0
16	15	10	45	554	236.0	-722563.0	37644.0	-5644171.0
16	15	10	45	554	237.0	-941411.0	36217.0	-5645051.0
16	15	10	45	554	238.0	-568071.0	37438.0	-5645733.0
16	15	10	45	555	239.0	104351.0	36754.0	-5644984.0
16	15	10	45	555	240.0	429023.0	35929.0	-5644349.0
16	15	10	45	555	241.0	362013.0	34793.0	-5645176.0
16	15	10	45	555	242.0	240100.0	33249.0	-5645969.0
16	15	10	45	556	243.0	153501.0	29496.0	-5645138.0
16	15	10	45	556	244.0	29190.0	26507.0	-5644335.0
16	15	10	45	557	245.0	-36717.0	25319.0	-5644692.0
16	15	10	45	557	246.0	-75106.0	26309.0	-5645689.0
16	15	10	45	557	247.0	-167831.0	26050.0	-5645016.0
16	15	10	45	558	248.0	-237126.0	25010.0	-5644246.0
16	15	10	45	558	249.0	-270144.0	23637.0	-5644723.0
16	15	10	45	558	250.0	-319357.0	21159.0	-5645546.0
16	15	10	45	714	251.0	-327091.0	17131.0	-5644862.0
16	15	10	45	715	252.0	-241340.0	15274.0	-5644122.0
16	15	10	45	715	253.0	-125909.0	16492.0	-5645009.0
16	15	10	45	715	254.0	-25968.0	15639.0	-5645709.0
16	15	10	45	716	255.0	32108.0	13900.0	-5644962.0
16	15	10	45	716	0.0	57131.0	13196.0	-5644286.0
16	15	10	45	716	1.0	58875.0	11904.0	-5645472.0
16	15	10	45	717	2.0	45499.0	10000.0	-5645895.0
16	15	10	45	717	3.0	31504.0	9618.0	-5645139.0
16	15	10	45	717	4.0	17499.0	8819.0	-5644314.0
16	15	10	45	718	5.0	8394.0	7583.0	-5645013.0
16	15	10	45	718	6.0	-1551.0	6763.0	-5645721.0
16	15	10	45	718	7.0	-17371.0	5741.0	-5645030.0
16	15	10	45	718	8.0	-31915.0	4218.0	-5644204.0
16	15	10	45	719	9.0	-31007.0	2073.0	-5645111.0
16	15	10	45	719	10.0	-22394.0	-1796.0	-5646050.0
16	15	10	45	720	11.0	-18481.0	-3492.0	-5645381.0
16	15	10	45	720	12.0	-3961.0	-4586.0	-5644579.0
16	15	10	45	720	13.0	29256.0	-5332.0	-5645551.0
16	15	10	45	720	14.0	60151.0	-6030.0	-5646293.0
16	15	10	45	721	15.0	85799.0	-6415.0	-5645606.0
16	15	10	45	721	16.0	114016.0	-5038.0	-5644799.0
16	15	10	45	721	17.0	140138.0	-6323.0	-5645625.0
16	15	10	45	722	18.0	160279.0	-6002.0	-5646471.0
16	15	10	45	722	19.0	170687.0	-6071.0	-5645743.0
16	15	10	45	722	20.0	169852.0	-6422.0	-5644937.0
16	15	10	45	722	21.0	174157.0	-6815.0	-5645587.0
16	15	10	45	723	22.0	177523.0	-8192.0	-5646314.0
16	15	10	45	723	23.0	183468.0	-9115.0	-5645604.0
16	15	10	45	723	24.0	179246.0	-10629.0	-5644802.0
16	15	10	45	723	25.0	167195.0	-13760.0	-5645087.0
16	15	10	45	724	26.0	157128.0	-14950.0	-5645501.0
16	15	10	45	724	27.0	145559.0	-15609.0	-5644823.0
16	15	10	45	724	28.0	121373.0	-13890.0	-5644928.0
16	15	10	45	725	29.0	94375.0	-13169.0	-5646225.0
16	15	10	45	725	30.0	66746.0	-13658.0	-5645662.0
16	15	10	45	725	31.0	42068.0	-14111.0	-5644934.0
16	15	10	45	726	32.0	19582.0	-16834.0	-5645448.0
16	15	10	45	726	33.0	3263.0	-19201.0	-5646386.0
16	15	10	45	726	34.0	-8851.0	-18084.0	-5645643.0
16	15	10	45	727	35.0	-18501.0	-16413.0	-5644822.0
16	15	10	45	727	36.0	-28712.0	-16799.0	-5644693.0
16	15	10	45	727	37.0	-38074.0	-16646.0	-5645867.0
16	15	10	45	728	38.0	-42642.0	-17286.0	-5645419.0
16	15	10	45	728	39.0	-42787.0	-18846.0	-5644592.0
16	15	10	45	728	40.0	-41384.0	-21927.0	-5644899.0
16	15	10	45	729	41.0	-31007.0	-22699.0	-5646009.0
16	15	10	45	729	42.0	-6580.0	-20296.0	-5645426.0
16	15	10	45	729	43.0	28981.0	-19791.0	-5644623.0
16	15	10	45	729	44.0	56773.0	-20282.0	-5644988.0
16	15	10	45	730	45.0	78550.0	-19654.0	-5645935.0
16	15	10	45	730	46.0	97878.0	-19963.0	-5645297.0
16	15	10	45	731	47.0	107478.0	-21869.0	-5644477.0
16	15	10	45	731	48.0	107543.0	-23823.0	-5645004.0
16	15	10	45	731	49.0	98868.0	-23430.0	-5645821.0
16	15	10	45	732	50.0	90297.0	-20647.0	-5645153.0
16	15	10	45	732	51.0	84856.0	-20066.0	-5644251.0
16	15	10	45	733	52.0	69206.0	-19713.0	-5644785.0
16	15	10	45	733	53.0	53478.0	-19063.0	-5645567.0
16	15	10	45	733	54.0	50781.0	-19453.0	-5644922.0
16	15	10	45	734	55.0	52749.0	-22211.0	-5644104.0
16	15	10	45	734	56.0	43226.0	-22240.0	-5644523.0
16	15	10	45	734	57.0	23606.0	-20058.0	-5645420.0
16	15	10	45	735	58.0	-197.0	-18989.0	-5644801.0
16	15	10	45	735	59.0	-20066.0	-18623.0	-5644082.0
16	15	10	45	736	60.0	-30003.0	-18217.0	-5645141.0
16	15	10	45	736	61.0	-27224.0	-18411.0	-5645491.0
16	15	10	45	736	62.0	-11952.0	-19790.0	-5644781.0
16	15	10	45	737	63.0	8275.0	-20827.0	-5644182.0
16	15	10	45	737	64.0	15672.0	-19957.0	-5645625.0
16	15	10	45	737	65.0	16068.0	-16889.0	-5645814.0
16	15	10	45	738	66.0	9973.0	-16077.0	-5645070.0
16	15	10	45	738	67.0	5297.0	-15847.0	-5644275.0
16	15	10	45	738	68.0	2669.0	-15307.0	-5645225.0
16	15	10	45	739	69.0	9044.0	-15797.0	-5645754.0
16	15	10	45	739	70.0	23031.0	-17900.0	-5645002.0
16	15	10	45	740	71.0	39262.0	-17458.0	-5644217.0
16	15	10	45	740	72.0	57895.0	-14178.0	-5644596.0
16	15	10	45	740	73.0	78924.0	-12796.0	-5645101.0
16	15	10	45	741	74.0	97182.0	-12441.0	-5644455.0
16	15	10	45	741	75.0	98861.0	-11963.0	-5645069.0
16	15	10	45	742	76.0	86421.0	-11586.0	-5645832.0
16	15	10	45	742	77.0	71943.0	-13006.0	-5645034.0
16	15	10	45	742	78.0	51234.0	-14143.0	-5644316.0
16	15	10	45	743	79.0	33984.0	-13314.0	-5644995.0
16	15	10	45	743	80.0	26183.0	-10396.0	-5645610.0
16	15	10	45	744	81.0	22414.0	-9214.0	-5644811.0
