16	15	11	48	128	21.0	624903.0	45458.0	-5624211.0
16	15	11	48	129	22.0	556730.0	43688.0	-5623357.0
16	15	11	48	129	23.0	488747.0	42402.0	-5622865.0
16	15	11	48	129	24.0	404813.0	40236.0	-5624018.0
16	15	11	48	130	25.0	292824.0	37454.0	-5624006.0
16	15	11	48	143	26.0	212912.0	33731.0	-5623155.0
16	15	11	48	143	27.0	152034.0	32196.0	-5623003.0
16	15	11	48	144	28.0	79926.0	31423.0	-5624331.0
16	15	11	48	144	29.0	14758.0	28683.0	-5624041.0
16	15	11	48	145	30.0	-31494.0	26857.0	-5623211.0
16	15	11	48	174	31.0	-79331.0	25784.0	-5623301.0
16	15	11	48	174	32.0	-133447.0	23444.0	-5624555.0
16	15	11	48	174	33.0	-173012.0	20049.0	-5624102.0
16	15	11	48	175	34.0	-212009.0	17799.0	-5623223.0
16	15	11	48	175	35.0	-257107.0	17254.0	-5623092.0
16	15	11	48	175	36.0	-333929.0	14948.0	-5624539.0
16	15	11	48	176	37.0	-427438.0	11674.0	-5624309.0
16	15	11	48	176	38.0	-512866.0	10628.0	-5623431.0
16	15	11	48	176	39.0	-544377.0	9954.0	-5623302.0
16	15	11	48	177	40.0	-543832.0	7588.0	-5624708.0
16	15	11	48	177	41.0	-518671.0	3835.0	-5624470.0
16	15	11	48	178	42.0	-481576.0	3750.0	-5623618.0
16	15	11	48	178	43.0	-437199.0	2860.0	-5623566.0
16	15	11	48	178	44.0	-406950.0	-184.0	-5624819.0
16	15	11	48	179	45.0	-396601.0	-2877.0	-5624463.0
16	15	11	48	179	46.0	-374556.0	-2412.0	-5623596.0
16	15	11	48	202	47.0	-352251.0	-3120.0	-5623487.0
16	15	11	48	248	48.0	-295053.0	-6274.0	-5624601.0
16	15	11	48	261	49.0	-217104.0	-6801.0	-5624177.0
16	15	11	48	261	50.0	-164374.0	-6937.0	-5623273.0
16	15	11	48	262	51.0	-123636.0	-8468.0	-5623092.0
16	15	11	48	262	52.0	-91961.0	-10021.0	-5624234.0
16	15	11	48	263	53.0	-71936.0	-11349.0	-5623809.0
16	15	11	48	263	54.0	-71339.0	-12151.0	-5623008.0
16	15	11	48	264	55.0	-75468.0	-13383.0	-5623152.0
16	15	11	48	264	56.0	-76899.0	-14503.0	-5624317.0
16	15	11	48	265	57.0	-54069.0	-15924.0	-5623774.0
16	15	11	48	265	58.0	-35508.0	-16945.0	-5623014.0
16	15	11	48	266	59.0	-29238.0	-17399.0	-5623744.0
16	15	11	48	266	60.0	-7161.0	-18378.0	-5624616.0
16	15	11	48	266	61.0	1108.0	-19031.0	-5623876.0
16	15	11	48	267	62.0	-2346.0	-20171.0	-5623082.0
16	15	11	48	267	84.0	-28372.0	-28018.0	-5623580.0
16	15	11	48	268	85.0	-18521.0	-28910.0	-5622825.0
16	15	11	48	268	86.0	-5274.0	-30979.0	-5623885.0
16	15	11	48	269	87.0	587.0	-31400.0	-5624435.0
16	15	11	48	269	88.0	1813.0	-31294.0	-5623691.0
16	15	11	48	289	89.0	-6757.0	-31177.0	-5622977.0
16	15	11	48	289	90.0	-30281.0	-31042.0	-5624038.0
16	15	11	48	310	91.0	-47499.0	-30939.0	-5624401.0
16	15	11	48	310	92.0	-55521.0	-29459.0	-5623646.0
16	15	11	48	311	93.0	-55785.0	-27142.0	-5623185.0
16	15	11	48	311	94.0	-63360.0	-25996.0	-5624488.0
16	15	11	48	311	95.0	-76011.0	-25522.0	-5624282.0
16	15	11	48	312	96.0	-86639.0	-25098.0	-5623509.0
16	15	11	48	312	97.0	-85201.0	-24109.0	-5623305.0
16	15	11	48	312	98.0	-64503.0	-23952.0	-5624579.0
16	15	11	48	313	99.0	-31327.0	-23716.0	-5624094.0
16	15	11	48	313	100.0	-9517.0	-22906.0	-5623287.0
16	15	11	48	313	101.0	1264.0	-22262.0	-5623286.0
16	15	11	48	313	102.0	6584.0	-20992.0	-5624591.0
16	15	11	48	314	103.0	17121.0	-20507.0	-5624079.0
16	15	11	48	314	104.0	32174.0	-20121.0	-5623262.0
16	15	11	48	314	105.0	41839.0	-18952.0	-5623441.0
16	15	11	48	314	107.0	60056.0	-18100.0	-5624146.0
16	15	11	48	315	108.0	57748.0	-19067.0	-5623449.0
16	15	11	48	315	109.0	48916.0	-19306.0	-5624573.0
16	15	11	48	315	110.0	46762.0	-18824.0	-5625284.0
16	15	11	48	315	111.0	36267.0	-18457.0	-5624481.0
16	15	11	48	315	112.0	28104.0	-17969.0	-5623648.0
16	15	11	48	337	113.0	23464.0	-17528.0	-5623959.0
16	15	11	48	359	114.0	11042.0	-16032.0	-5625048.0
16	15	11	48	359	115.0	-276.0	-12950.0	-5624431.0
16	15	11	48	360	116.0	-6312.0	-11813.0	-5623556.0
16	15	11	48	360	117.0	-5966.0	-11591.0	-5623688.0
16	15	11	48	360	118.0	22841.0	-10912.0	-5624707.0
16	15	11	48	361	119.0	62888.0	-10159.0	-5624179.0
16	15	11	48	361	120.0	88104.0	-9777.0	-5623321.0
16	15	11	48	361	121.0	97556.0	-8911.0	-5623923.0
16	15	11	48	362	122.0	92356.0	-8370.0	-5624795.0
16	15	11	48	362	123.0	87265.0	-7534.0	-5624133.0
16	15	11	48	363	124.0	86689.0	-6923.0	-5623293.0
16	15	11	48	363	125.0	83662.0	-6256.0	-5624063.0
16	15	11	48	363	126.0	77420.0	-5475.0	-5624841.0
16	15	11	48	364	127.0	63309.0	-4892.0	-5624159.0
16	15	11	48	364	129.0	25384.0	-3964.0	-5624567.0
16	15	11	48	364	130.0	30134.0	-4474.0	-5624917.0
16	15	11	48	365	131.0	29759.0	-5801.0	-5624142.0
16	15	11	48	365	132.0	33223.0	-5712.0	-5623362.0
16	15	11	48	365	133.0	50689.0	-5331.0	-5624274.0
16	15	11	48	366	134.0	70670.0	-4806.0	-5624984.0
16	15	11	48	366	135.0	82752.0	-4507.0	-5624242.0
16	15	11	48	382	136.0	81210.0	-3989.0	-5623482.0
16	15	11	48	403	137.0	70155.0	-3126.0	-5624338.0
16	15	11	48	403	138.0	61142.0	-1171.0	-5625030.0
16	15	11	48	404	139.0	61041.0	-158.0	-5624315.0
16	15	11	48	404	140.0	80091.0	227.0	-5623721.0
16	15	11	48	404	141.0	112713.0	1112.0	-5624758.0
16	15	11	48	405	142.0	158531.0	1258.0	-5624785.0
16	15	11	48	405	143.0	209386.0	993.0	-5623980.0
16	15	11	48	405	144.0	244679.0	1445.0	-5623692.0
16	15	11	48	427	145.0	265003.0	1901.0	-5625241.0
16	15	11	48	441	146.0	280706.0	1574.0	-5625087.0
16	15	11	48	442	147.0	290821.0	2008.0	-5624186.0
16	15	11	48	442	148.0	270639.0	2228.0	-5623774.0
16	15	11	48	442	149.0	112682.0	2054.0	-5624929.0
16	15	11	48	443	150.0	-196357.0	2661.0	-5624786.0
16	15	11	48	443	152.0	-740867.0	2787.0	-5623477.0
16	15	11	48	443	153.0	-766320.0	1008.0	-5624800.0
16	15	11	48	443	154.0	-633968.0	19.0	-5624769.0
16	15	11	48	444	155.0	-434878.0	263.0	-5623913.0
16	15	11	48	444	156.0	-262262.0	2164.0	-5623965.0
16	15	11	48	444	157.0	-147065.0	2994.0	-5625196.0
16	15	11	48	445	158.0	-41330.0	2861.0	-5624749.0
16	15	11	48	445	159.0	34159.0	3016.0	-5623910.0
16	15	11	48	445	160.0	-18620.0	3264.0	-5624426.0
16	15	11	48	445	174.0	-112379.0	2721.0	-5624979.0
16	15	11	48	446	175.0	-148303.0	1411.0	-5624220.0
16	15	11	48	446	176.0	-197711.0	-27.0	-5625027.0
16	15	11	48	446	177.0	-251474.0	-494.0	-5625686.0
16	15	11	48	460	178.0	-298502.0	-636.0	-5624928.0
16	15	11	48	460	179.0	-359132.0	-468.0	-5624074.0
16	15	11	48	461	180.0	-416207.0	-227.0	-5624185.0
16	15	11	48	476	181.0	-455669.0	-102.0	-5624849.0
16	15	11	48	477	182.0	-479259.0	972.0	-5624172.0
16	15	11	48	477	183.0	-476926.0	3086.0	-5623913.0
16	15	11	48	478	184.0	-447348.0	3189.0	-5625146.0
16	15	11	48	478	185.0	-417292.0	3062.0	-5624788.0
16	15	11	48	493	186.0	-390826.0	2610.0	-5624006.0
16	15	11	48	494	187.0	-368460.0	2530.0	-5624561.0
16	15	11	48	495	188.0	-351791.0	2549.0	-5625456.0
16	15	11	48	495	189.0	-343296.0	3017.0	-5624738.0
16	15	11	48	496	190.0	-346901.0	3031.0	-5623997.0
16	15	11	48	497	191.0	-362395.0	3011.0	-5624886.0
16	15	11	48	497	192.0	-358326.0	3197.0	-5625601.0
16	15	11	48	497	193.0	-333973.0	3313.0	-5624844.0
16	15	11	48	498	194.0	-303395.0	3331.0	-5624002.0
16	15	11	48	498	195.0	-266904.0	3540.0	-5624314.0
16	15	11	48	498	197.0	-213524.0	3021.0	-5624771.0
16	15	11	48	498	198.0	-191816.0	776.0	-5623940.0
16	15	11	48	499	199.0	-157565.0	-181.0	-5624707.0
16	15	11	48	499	200.0	-118315.0	-242.0	-5625490.0
16	15	11	48	499	201.0	-83846.0	-246.0	-5624826.0
16	15	11	48	499	202.0	-50554.0	-211.0	-5624006.0
16	15	11	48	517	203.0	-22579.0	-324.0	-5624736.0
16	15	11	48	517	204.0	-127.0	834.0	-5625466.0
16	15	11	48	530	205.0	16718.0	3239.0	-5624767.0
16	15	11	48	530	206.0	33875.0	3534.0	-5624046.0
16	15	11	48	531	207.0	54454.0	3631.0	-5625204.0
16	15	11	48	531	208.0	85586.0	3604.0	-5625614.0
16	15	11	48	531	209.0	119175.0	3916.0	-5624897.0
16	15	11	48	532	210.0	145084.0	4213.0	-5624153.0
16	15	11	48	532	211.0	165348.0	4629.0	-5624868.0
16	15	11	48	532	212.0	176194.0	4250.0	-5624877.0
16	15	11	48	532	213.0	184216.0	4289.0	-5624160.0
16	15	11	48	532	214.0	186218.0	4598.0	-5624567.0
16	15	11	48	533	215.0	181351.0	4312.0	-5625740.0
16	15	11	48	533	216.0	175866.0	4276.0	-5625001.0
16	15	11	48	533	217.0	166066.0	4558.0	-5624232.0
16	15	11	48	533	219.0	149823.0	4063.0	-5625631.0
16	15	11	48	534	220.0	141522.0	2888.0	-5624931.0
16	15	11	48	534	221.0	141418.0	1746.0	-5624256.0
16	15	11	48	534	222.0	148130.0	1771.0	-5624955.0
16	15	11	48	534	223.0	158142.0	1911.0	-5625656.0
16	15	11	48	547	224.0	170681.0	2455.0	-5624862.0
16	15	11	48	565	225.0	190011.0	2760.0	-5624219.0
16	15	11	48	565	226.0	206144.0	3034.0	-5625014.0
16	15	11	48	565	227.0	219274.0	5271.0	-5625477.0
16	15	11	48	566	228.0	226931.0	6379.0	-5624653.0
16	15	11	48	566	229.0	223620.0	7792.0	-5624113.0
16	15	11	48	566	230.0	213846.0	9167.0	-5625432.0
16	15	11	48	566	231.0	202706.0	10335.0	-5625627.0
16	15	11	48	567	232.0	180125.0	11428.0	-5624795.0
16	15	11	48	567	233.0	148518.0	12503.0	-5624117.0
16	15	11	48	581	234.0	117287.0	13331.0	-5625125.0
16	15	11	48	581	235.0	90158.0	14769.0	-5625522.0
16	15	11	48	582	236.0	62696.0	16291.0	-5624704.0
16	15	11	48	582	237.0	37968.0	18142.0	-5624491.0
16	15	11	48	582	238.0	20925.0	19982.0	-5625887.0
16	15	11	48	582	239.0	9981.0	21809.0	-5625551.0
16	15	11	48	583	242.0	-44972.0	27184.0	-5625697.0
16	15	11	48	583	243.0	-55993.0	27230.0	-5625519.0
16	15	11	48	583	244.0	-59889.0	28946.0	-5624730.0
16	15	11	48	583	245.0	-62281.0	31432.0	-5624021.0
16	15	11	48	584	246.0	-42845.0	33671.0	-5625030.0
16	15	11	48	584	247.0	-13376.0	35773.0	-5625339.0
16	15	11	48	609	248.0	5293.0	38393.0	-5624578.0
16	15	11	48	609	249.0	7891.0	41509.0	-5623946.0
16	15	11	48	610	250.0	1919.0	45496.0	-5625227.0
16	15	11	48	611	251.0	21751.0	48488.0	-5625348.0
16	15	11	48	611	252.0	59518.0	50212.0	-5624596.0
16	15	11	48	612	253.0	102456.0	52342.0	-5624162.0
16	15	11	48	612	254.0	152511.0	54494.0	-5625062.0
16	15	11	48	612	255.0	200217.0	55639.0	-5624619.0
16	15	11	48	633	0.0	246071.0	56898.0	-5624155.0
16	15	11	48	633	1.0	295661.0	58376.0	-5625321.0
16	15	11	48	634	2.0	337886.0	59179.0	-5625330.0
16	15	11	48	634	3.0	381200.0	59842.0	-5624432.0
16	15	11	48	634	4.0	405818.0	59936.0	-5623982.0
16	15	11	48	635	5.0	398641.0	60187.0	-5625094.0
16	15	11	48	635	6.0	364808.0	60339.0	-5625122.0
16	15	11	48	635	8.0	215079.0	60513.0	-5623797.0
16	15	11	48	636	9.0	124754.0	58163.0	-5624930.0
16	15	11	48	636	10.0	13118.0	55881.0	-5624959.0
16	15	11	48	636	11.0	-177928.0	55127.0	-5624094.0
16	15	11	48	636	12.0	-477612.0	53798.0	-5624001.0
16	15	11	48	637	13.0	-650321.0	52851.0	-5625142.0
16	15	11	48	654	14.0	-441529.0	51773.0	-5624792.0
16	15	11	48	654	15.0	-47416.0	50676.0	-5623937.0
16	15	11	48	654	16.0	244707.0	51089.0	-5623826.0
16	15	11	48	676	17.0	354842.0	51044.0	-5625239.0
16	15	11	48	676	18.0	357837.0	49126.0	-5624983.0
16	15	11	48	677	19.0	349154.0	47242.0	-5624075.0
16	15	11	48	677	20.0	292614.0	45293.0	-5623782.0
16	15	11	48	677	21.0	201489.0	43801.0	-5625121.0
16	15	11	48	677	22.0	108639.0	41573.0	-5624905.0
16	15	11	48	678	23.0	24447.0	39348.0	-5624057.0
16	15	11	48	678	24.0	-35646.0	37501.0	-5623887.0
16	15	11	48	678	25.0	-72416.0	35501.0	-5625378.0
16	15	11	48	678	26.0	-106155.0	33621.0	-5625118.0
16	15	11	48	679	27.0	-134001.0	31682.0	-5624322.0
16	15	11	48	679	28.0	-155924.0	29816.0	-5624488.0
16	15	11	48	679	30.0	-165717.0	24364.0	-5625229.0
16	15	11	48	679	31.0	-177503.0	21991.0	-5624405.0
16	15	11	48	680	32.0	-192943.0	18212.0	-5624478.0
16	15	11	48	680	33.0	-221146.0	15744.0	-5625611.0
16	15	11	48	680	34.0	-291269.0	13801.0	-5625039.0
16	15	11	48	680	35.0	-380327.0	11431.0	-5624229.0
16	15	11	48	681	36.0	-453202.0	9484.0	-5624276.0
16	15	11	48	698	37.0	-462308.0	7598.0	-5625442.0
16	15	11	48	699	38.0	-375214.0	6311.0	-5624884.0
16	15	11	48	711	39.0	-272872.0	6541.0	-5624109.0
16	15	11	48	711	40.0	-176659.0	5702.0	-5624023.0
16	15	11	48	712	41.0	-73963.0	3749.0	-5624857.0
16	15	11	48	712	42.0	14884.0	2181.0	-5624261.0
16	15	11	48	712	43.0	81226.0	993.0	-5624207.0
16	15	11	48	712	44.0	115798.0	-390.0	-5625605.0
16	15	11	48	713	45.0	150312.0	-1909.0	-5625232.0
16	15	11	48	713	46.0	207061.0	-3142.0	-5624397.0
16	15	11	48	713	47.0	261452.0	-4157.0	-5624257.0
16	15	11	48	713	48.0	295003.0	-5647.0	-5625348.0
16	15	11	48	714	49.0	306263.0	-7137.0	-5624901.0
16	15	11	48	714	50.0	312441.0	-8710.0	-5624039.0
16	15	11	48	714	51.0	311804.0	-9699.0	-5624039.0
16	15	11	48	714	53.0	254618.0	-12803.0	-5624784.0
16	15	11	48	714	54.0	235931.0	-15702.0	-5623892.0
16	15	11	48	715	55.0	222340.0	-17753.0	-5623854.0
16	15	11	48	715	56.0	215323.0	-18832.0	-5625109.0
16	15	11	48	728	57.0	195126.0	-20141.0	-5624716.0
16	15	11	48	729	58.0	175287.0	-21319.0	-5623856.0
16	15	11	48	746	59.0	161980.0	-21999.0	-5624399.0
16	15	11	48	746	60.0	151740.0	-22387.0	-5625471.0
16	15	11	48	747	61.0	153814.0	-21444.0	-5624899.0
16	15	11	48	747	62.0	167094.0	-21201.0	-5624078.0
16	15	11	48	747	63.0	167964.0	-21919.0	-5624753.0
16	15	11	48	747	64.0	161628.0	-22838.0	-5625439.0
16	15	11	48	747	65.0	160892.0	-22960.0	-5624780.0
16	15	11	48	748	66.0	167909.0	-23479.0	-5623927.0
16	15	11	48	763	67.0	166423.0	-23669.0	-5624037.0
16	15	11	48	764	68.0	150954.0	-24459.0	-5625454.0
16	15	11	48	764	69.0	123460.0	-24948.0	-5625016.0
16	15	11	48	764	70.0	96548.0	-25611.0	-5624161.0
16	15	11	48	765	71.0	87997.0	-25997.0	-5624451.0
16	15	11	48	765	72.0	94412.0	-26431.0	-5625591.0
16	15	11	48	765	73.0	105247.0	-26920.0	-5624961.0
16	15	11	48	765	75.0	126401.0	-26724.0	-5624659.0
16	15	11	48	766	76.0	149453.0	-27732.0	-5625214.0
16	15	11	48	766	77.0	155764.0	-30116.0	-5624494.0
16	15	11	48	766	78.0	167921.0	-30664.0	-5624125.0
16	15	11	48	766	79.0	194485.0	-30655.0	-5625511.0
16	15	11	48	766	80.0	219989.0	-30887.0	-5625239.0
16	15	11	48	767	81.0	237069.0	-31499.0	-5624446.0
16	15	11	48	787	82.0	240032.0	-31901.0	-5624307.0
16	15	11	48	798	83.0	242402.0	-31296.0	-5625537.0
16	15	11	48	798	84.0	247038.0	-28934.0	-5625095.0
16	15	11	48	798	85.0	243636.0	-28036.0	-5624277.0
16	15	11	48	799	86.0	230536.0	-27432.0	-5624251.0
16	15	11	48	799	87.0	221430.0	-26984.0	-5625716.0
16	15	11	48	799	88.0	216578.0	-27047.0	-5625324.0
16	15	11	48	800	89.0	196746.0	-26751.0	-5624516.0
16	15	11	48	800	90.0	159149.0	-26587.0	-5624848.0
16	15	11	48	800	91.0	112062.0	-26187.0	-5626039.0
16	15	11	48	800	92.0	60546.0	-26054.0	-5625451.0
16	15	11	48	801	93.0	9268.0	-25472.0	-5624619.0
16	15	11	48	801	94.0	-26742.0	-25242.0	-5625237.0
16	15	11	48	801	95.0	-46124.0	-25036.0	-5626216.0
16	15	11	48	802	96.0	-53377.0	-24926.0	-5625567.0
16	15	11	48	802	98.0	-69294.0	-23527.0	-5625343.0
16	15	11	48	833	99.0	-85162.0	-25007.0	-5625916.0
16	15	11	48	833	100.0	-97921.0	-25537.0	-5625231.0
16	15	11	48	842	101.0	-113469.0	-25279.0	-5624412.0
16	15	11	48	843	102.0	-130828.0	-24221.0	-5625187.0
16	15	11	48	843	103.0	-148055.0	-23279.0	-5625966.0
16	15	11	48	843	104.0	-169484.0	-21171.0	-5625298.0
16	15	11	48	843	105.0	-187939.0	-18704.0	-5624506.0
16	15	11	48	844	106.0	-200144.0	-17860.0	-5625351.0
16	15	11	48	844	107.0	-202567.0	-17259.0	-5625998.0
16	15	11	48	844	108.0	-205326.0	-16073.0	-5625301.0
16	15	11	48	845	109.0	-210131.0	-15676.0	-5624671.0
16	15	11	48	845	110.0	-197003.0	-15049.0	-5625602.0
16	15	11	48	845	111.0	-191382.0	-14379.0	-5625460.0
16	15	11	48	845	112.0	-186699.0	-13611.0	-5624823.0
16	15	11	48	862	113.0	-176349.0	-12117.0	-5625786.0
16	15	11	48	863	120.0	-108902.0	-7851.0	-5624911.0
16	15	11	48	863	121.0	-108658.0	-8319.0	-5625674.0
16	15	11	48	864	122.0	-112310.0	-9708.0	-5626383.0
16	15	11	48	864	123.0	-113054.0	-9267.0	-5625583.0
16	15	11	48	864	124.0	-125201.0	-8634.0	-5624933.0
16	15	11	48	865	125.0	-138701.0	-8029.0	-5625797.0
16	15	11	48	865	126.0	-142229.0	-7396.0	-5626352.0
16	15	11	48	886	127.0	-135221.0	-7140.0	-5625543.0
16	15	11	48	887	128.0	-124158.0	-6347.0	-5624888.0
16	15	11	48	887	129.0	-111947.0	-3929.0	-5625884.0
16	15	11	48	887	130.0	-106817.0	-3406.0	-5626523.0
16	15	11	48	888	131.0	-105590.0	-2696.0	-5625718.0
16	15	11	48	888	132.0	-104918.0	-2174.0	-5624948.0
16	15	11	48	888	133.0	-104259.0	-1457.0	-5625655.0
16	15	11	48	889	134.0	-95146.0	-1691.0	-5626497.0
16	15	11	48	889	135.0	-72417.0	-1015.0	-5625772.0
16	15	11	48	889	136.0	-38807.0	-519.0	-5624975.0
16	15	11	48	889	137.0	5151.0	254.0	-5625704.0
16	15	11	48	890	138.0	56455.0	223.0	-5626477.0
16	15	11	48	890	139.0	111137.0	204.0	-5625809.0
16	15	11	48	890	140.0	153627.0	388.0	-5625129.0
16	15	11	48	890	141.0	174421.0	311.0	-5626189.0
16	15	11	48	906	143.0	164820.0	718.0	-5625813.0
16	15	11	48	906	144.0	163625.0	-981.0	-5625152.0
16	15	11	48	906	145.0	121126.0	-2184.0	-5626228.0
16	15	11	48	907	146.0	-142871.0	-2627.0	-5626358.0
16	15	11	48	907	147.0	-579678.0	-2877.0	-5625517.0
16	15	11	48	907	148.0	-882263.0	-2773.0	-5624985.0
16	15	11	48	926	149.0	-882139.0	-2729.0	-5626109.0
16	15	11	48	926	150.0	-681267.0	-2110.0	-5625838.0
16	15	11	48	927	151.0	-417243.0	286.0	-5625202.0
16	15	11	48	927	152.0	-146504.0	1317.0	-5626246.0
16	15	11	48	927	153.0	50296.0	1466.0	-5626996.0
16	15	11	48	927	154.0	165345.0	1583.0	-5626202.0
16	15	11	48	928	155.0	231663.0	1631.0	-5625722.0
16	15	11	48	943	156.0	223624.0	1286.0	-5626977.0
16	15	11	48	943	157.0	221620.0	1359.0	-5627211.0
16	15	11	48	944	158.0	263309.0	1608.0	-5626346.0
16	15	11	48	944	159.0	268267.0	1208.0	-5625912.0
16	15	11	48	944	160.0	245542.0	1389.0	-5627115.0
16	15	11	48	944	161.0	217612.0	1770.0	-5627174.0
16	15	11	48	945	162.0	206408.0	2212.0	-5626312.0
16	15	11	48	945	163.0	257430.0	1795.0	-5625797.0
16	15	11	48	945	165.0	409325.0	1379.0	-5627179.0
16	15	11	48	946	166.0	452611.0	124.0	-5626319.0
16	15	11	48	946	167.0	433891.0	-1800.0	-5625809.0
16	15	11	48	946	168.0	340500.0	-2096.0	-5627011.0
16	15	11	48	946	169.0	234968.0	-2169.0	-5627256.0
16	15	11	48	947	170.0	169516.0	-2181.0	-5626365.0
16	15	11	48	947	171.0	141794.0	-2284.0	-5626193.0
16	15	11	48	968	172.0	116927.0	-2382.0	-5627492.0
16	15	11	48	968	173.0	82959.0	-1357.0	-5627206.0
16	15	11	48	977	174.0	37643.0	678.0	-5626313.0
16	15	11	48	978	175.0	-17096.0	1269.0	-5626206.0
16	15	11	48	978	176.0	-71391.0	994.0	-5627394.0
16	15	11	48	978	177.0	-130232.0	716.0	-5627014.0
16	15	11	48	979	178.0	-176302.0	839.0	-5626121.0
16	15	11	48	979	179.0	-201539.0	726.0	-5625916.0
16	15	11	48	979	180.0	-222346.0	823.0	-5627282.0
16	15	11	48	980	181.0	-218410.0	1023.0	-5627018.0
16	15	11	48	980	182.0	-192816.0	904.0	-5626181.0
16	15	11	48	980	183.0	-174259.0	1039.0	-5626156.0
16	15	11	48	981	184.0	-176318.0	771.0	-5627340.0
16	15	11	48	981	185.0	-188889.0	897.0	-5626830.0
16	15	11	48	981	186.0	-216418.0	967.0	-5626066.0
16	15	11	48	994	188.0	-266854.0	659.0	-5627780.0
16	15	11	48	995	189.0	-266346.0	-1290.0	-5627074.0
16	15	11	48	995	190.0	-267740.0	-2304.0	-5626267.0
16	15	11	48	996	191.0	-267941.0	-2752.0	-5626529.0
16	15	11	48	996	192.0	-254641.0	-2839.0	-5627739.0
16	15	11	48	996	193.0	-245104.0	-3134.0	-5627111.0
16	15	11	49	59	194.0	-243895.0	-2626.0	-5626336.0
16	15	11	49	60	195.0	-248263.0	-1617.0	-5626056.0
16	15	11	49	60	196.0	-245824.0	467.0	-5627136.0
16	15	11	49	61	197.0	-231070.0	798.0	-5626696.0
16	15	11	49	62	198.0	-204003.0	1313.0	-5626352.0
16	15	11	49	79	199.0	-166291.0	1760.0	-5627767.0
16	15	11	49	80	200.0	-126418.0	1492.0	-5627736.0
16	15	11	49	80	201.0	-91850.0	1273.0	-5626878.0
16	15	11	49	81	202.0	-73326.0	1613.0	-5626709.0
16	15	11	49	81	203.0	-58400.0	1993.0	-5628019.0
16	15	11	49	82	204.0	-43757.0	2119.0	-5627717.0
16	15	11	49	82	205.0	-18175.0	1988.0	-5626865.0
16	15	11	49	83	206.0	5649.0	2319.0	-5626708.0
16	15	11	49	83	207.0	30060.0	2613.0	-5628017.0
16	15	11	49	84	208.0	54114.0	2116.0	-5627746.0
16	15	11	49	84	233.0	58013.0	19314.0	-5627285.0
16	15	11	49	85	234.0	34018.0	19002.0	-5627685.0
16	15	11	49	85	235.0	270.0	20412.0	-5628753.0
16	15	11	49	86	236.0	-29934.0	22740.0	-5628076.0
16	15	11	49	86	237.0	-58222.0	25006.0	-5627272.0
16	15	11	49	87	238.0	-78538.0	27084.0	-5627331.0
16	15	11	49	111	239.0	-94901.0	29173.0	-5627894.0
16	15	11	49	111	240.0	-107264.0	32124.0	-5627222.0
16	15	11	49	112	241.0	-111827.0	36869.0	-5627229.0
16	15	11	49	112	242.0	-113851.0	40061.0	-5628571.0
16	15	11	49	149	243.0	-116147.0	43373.0	-5628049.0
16	15	11	49	160	244.0	-116225.0	46226.0	-5627186.0
16	15	11	49	193	245.0	-109746.0	48810.0	-5627073.0
16	15	11	49	210	246.0	-101512.0	51607.0	-5628322.0
16	15	11	49	210	247.0	-87694.0	53334.0	-5627893.0
16	15	11	49	211	248.0	-64651.0	55489.0	-5627063.0
16	15	11	49	211	249.0	-32429.0	58116.0	-5627272.0
16	15	11	49	212	250.0	2086.0	59669.0	-5628582.0
16	15	11	49	212	251.0	36944.0	61081.0	-5628077.0
16	15	11	49	213	252.0	83273.0	62221.0	-5627282.0
16	15	11	49	213	253.0	135043.0	63581.0	-5627964.0
16	15	11	49	213	255.0	230353.0	65200.0	-5628369.0
16	15	11	49	214	0.0	262894.0	64492.0	-5627537.0
16	15	11	49	214	1.0	285909.0	63322.0	-5627932.0
16	15	11	49	214	2.0	291861.0	65085.0	-5628809.0
16	15	11	49	215	22.0	-41704.0	34938.0	-5628427.0
16	15	11	49	215	23.0	-102343.0	30427.0	-5627633.0
16	15	11	49	216	24.0	-147718.0	29133.0	-5627232.0
16	15	11	49	216	44.0	-23344.0	-8257.0	-5628072.0
16	15	11	49	216	45.0	12092.0	-10807.0	-5628980.0
16	15	11	49	217	46.0	57219.0	-14013.0	-5628369.0
16	15	11	49	217	47.0	97823.0	-15956.0	-5627529.0
16	15	11	49	218	48.0	130396.0	-17046.0	-5628072.0
16	15	11	49	218	49.0	154973.0	-17984.0	-5629126.0
16	15	11	49	218	50.0	166821.0	-19176.0	-5628516.0
16	15	11	49	237	51.0	178298.0	-20359.0	-5627616.0
16	15	11	49	238	52.0	182219.0	-21087.0	-5627821.0
16	15	11	49	238	53.0	180609.0	-20495.0	-5629001.0
16	15	11	49	256	54.0	186521.0	-20945.0	-5628500.0
16	15	11	49	256	55.0	202275.0	-21172.0	-5627679.0
16	15	11	49	257	56.0	220183.0	-22055.0	-5628268.0
16	15	11	49	257	57.0	234274.0	-22812.0	-5629450.0
16	15	11	49	257	58.0	238591.0	-23742.0	-5628817.0
16	15	11	49	258	59.0	228739.0	-24091.0	-5628021.0
16	15	11	49	258	60.0	208108.0	-24749.0	-5628236.0
16	15	11	49	258	61.0	192543.0	-25337.0	-5629197.0
16	15	11	49	259	62.0	193751.0	-26191.0	-5628593.0
16	15	11	49	259	63.0	194916.0	-26192.0	-5627851.0
16	15	11	49	259	64.0	185454.0	-26269.0	-5628725.0
16	15	11	49	260	65.0	162030.0	-26441.0	-5629484.0
16	15	11	49	260	66.0	142998.0	-26996.0	-5628716.0
16	15	11	49	260	67.0	118961.0	-28014.0	-5627911.0
16	15	11	49	260	68.0	93108.0	-31009.0	-5628346.0
16	15	11	49	261	69.0	71533.0	-31922.0	-5629491.0
16	15	11	49	261	70.0	54420.0	-32301.0	-5628784.0
16	15	11	49	261	71.0	45651.0	-32570.0	-5628064.0
16	15	11	49	262	72.0	39902.0	-32897.0	-5628471.0
16	15	11	49	282	73.0	38978.0	-32979.0	-5629327.0
16	15	11	49	283	74.0	43729.0	-32859.0	-5628546.0
16	15	11	49	283	75.0	52918.0	-31426.0	-5628163.0
16	15	11	49	296	76.0	71717.0	-30637.0	-5629309.0
16	15	11	49	296	77.0	85290.0	-30349.0	-5629203.0
16	15	11	49	296	78.0	106335.0	-30408.0	-5628342.0
16	15	11	49	296	79.0	127204.0	-30904.0	-5627984.0
16	15	11	49	297	80.0	142357.0	-30851.0	-5629130.0
16	15	11	49	297	81.0	155297.0	-30098.0	-5629057.0
16	15	11	49	297	82.0	160813.0	-30219.0	-5628166.0
16	15	11	49	298	83.0	167000.0	-30129.0	-5627682.0
16	15	11	49	298	84.0	174763.0	-29811.0	-5628827.0
16	15	11	49	298	85.0	181937.0	-29337.0	-5628847.0
16	15	11	49	298	86.0	179328.0	-29506.0	-5627966.0
16	15	11	49	299	87.0	169724.0	-29064.0	-5627711.0
16	15	11	49	299	89.0	161216.0	-28234.0	-5628974.0
16	15	11	49	299	90.0	157583.0	-29105.0	-5628140.0
16	15	11	49	299	91.0	157553.0	-29929.0	-5627990.0
16	15	11	49	300	92.0	158559.0	-29742.0	-5629235.0
16	15	11	49	300	93.0	150600.0	-29233.0	-5628936.0
16	15	11	49	314	94.0	137851.0	-28527.0	-5628082.0
16	15	11	49	331	95.0	122528.0	-28387.0	-5628054.0
16	15	11	49	331	96.0	106614.0	-27845.0	-5629469.0
16	15	11	49	332	97.0	91763.0	-24873.0	-5629122.0
16	15	11	49	332	98.0	77663.0	-23746.0	-5628287.0
16	15	11	49	332	99.0	66976.0	-22712.0	-5627796.0
16	15	11	49	333	100.0	57894.0	-21910.0	-5629059.0
16	15	11	49	333	101.0	36932.0	-21428.0	-5629042.0
16	15	11	49	333	102.0	18159.0	-21171.0	-5628226.0
16	15	11	49	333	103.0	7691.0	-20304.0	-5628231.0
16	15	11	49	349	104.0	-4479.0	-19476.0	-5629613.0
16	15	11	49	349	105.0	-15153.0	-19138.0	-5629117.0
16	15	11	49	349	106.0	-28944.0	-18425.0	-5628332.0
16	15	11	49	350	107.0	-44266.0	-16969.0	-5628406.0
16	15	11	49	350	108.0	-57241.0	-15640.0	-5628956.0
16	15	11	49	350	109.0	-67212.0	-15501.0	-5628253.0
16	15	11	49	350	111.0	-105308.0	-14416.0	-5629411.0
16	15	11	49	351	112.0	-100860.0	-14181.0	-5629205.0
16	15	11	49	351	113.0	-105988.0	-15779.0	-5628390.0
16	15	11	49	351	114.0	-116069.0	-15828.0	-5628299.0
16	15	11	49	352	115.0	-119177.0	-15299.0	-5629594.0
16	15	11	49	352	116.0	-113879.0	-14495.0	-5629236.0
16	15	11	49	352	117.0	-105325.0	-13775.0	-5628351.0
16	15	11	49	373	118.0	-93667.0	-13121.0	-5627996.0
16	15	11	49	394	119.0	-77829.0	-11894.0	-5629258.0
16	15	11	49	395	120.0	-64997.0	-9179.0	-5629187.0
16	15	11	49	395	121.0	-60074.0	-8197.0	-5628302.0
16	15	11	49	395	122.0	-57612.0	-7266.0	-5628171.0
16	15	11	49	396	123.0	-49902.0	-6654.0	-5629572.0
16	15	11	49	396	124.0	-37804.0	-6206.0	-5629324.0
16	15	11	49	396	125.0	-29562.0	-5242.0	-5628429.0
16	15	11	49	397	126.0	-23735.0	-4968.0	-5628496.0
16	15	11	49	397	127.0	-10474.0	-4784.0	-5629698.0
16	15	11	49	397	128.0	8702.0	-4259.0	-5629239.0
16	15	11	49	398	129.0	30706.0	-3762.0	-5628357.0
16	15	11	49	398	130.0	52354.0	-3186.0	-5628462.0
16	15	11	49	398	131.0	76556.0	-2867.0	-5629755.0
16	15	11	49	399	132.0	112468.0	-2559.0	-5629341.0
16	15	11	49	399	134.0	199923.0	-2597.0	-5628329.0
16	15	11	49	399	135.0	235104.0	-3818.0	-5629762.0
16	15	11	49	400	136.0	265711.0	-4761.0	-5629490.0
16	15	11	49	400	137.0	293081.0	-4704.0	-5628642.0
16	15	11	49	400	138.0	307408.0	-4337.0	-5628354.0
16	15	11	49	401	139.0	296070.0	-4257.0	-5629714.0
16	15	11	49	464	140.0	263226.0	-4222.0	-5629511.0
16	15	11	49	464	141.0	219403.0	-3153.0	-5628639.0
16	15	11	49	509	142.0	179935.0	-1218.0	-5628851.0
16	15	11	49	553	143.0	29651.0	-116.0	-5629789.0
16	15	11	49	562	144.0	-404410.0	-676.0	-5629135.0
16	15	11	49	562	145.0	-945956.0	-507.0	-5628297.0
16	15	11	49	563	146.0	-1202835.0	309.0	-5628799.0
16	15	11	49	563	147.0	-1117433.0	996.0	-5629699.0
16	15	11	49	563	148.0	-837795.0	1028.0	-5628955.0
16	15	11	49	564	149.0	-495172.0	1146.0	-5628197.0
16	15	11	49	564	150.0	-209955.0	1121.0	-5628204.0
16	15	11	49	564	151.0	-67198.0	1201.0	-5628916.0
16	15	11	49	564	152.0	15146.0	867.0	-5628267.0
16	15	11	49	565	153.0	90144.0	415.0	-5628164.0
16	15	11	49	565	154.0	79397.0	819.0	-5629403.0
16	15	11	49	565	179.0	-232279.0	254.0	-5627247.0
16	15	11	49	566	180.0	-236576.0	-969.0	-5627734.0
16	15	11	49	566	201.0	91101.0	1786.0	-5629467.0
16	15	11	49	566	224.0	132985.0	10413.0	-5629893.0
16	15	11	49	566	225.0	119343.0	9664.0	-5629033.0
16	15	11	49	586	226.0	100069.0	10248.0	-5628331.0
16	15	11	49	587	227.0	88273.0	11584.0	-5628872.0
16	15	11	49	587	228.0	82123.0	13298.0	-5629675.0
16	15	11	49	587	229.0	74926.0	15315.0	-5628854.0
16	15	11	49	612	230.0	64172.0	17432.0	-5628251.0
16	15	11	49	613	231.0	51007.0	19946.0	-5629276.0
16	15	11	49	613	232.0	31289.0	24134.0	-5629749.0
16	15	11	49	613	233.0	11908.0	26832.0	-5628917.0
16	15	11	49	614	234.0	-10546.0	30241.0	-5628427.0
16	15	11	49	614	235.0	-32879.0	32986.0	-5629728.0
16	15	11	49	614	236.0	-52244.0	36363.0	-5629964.0
16	15	11	49	614	237.0	-50264.0	39221.0	-5629099.0
16	15	11	49	615	238.0	-38933.0	42785.0	-5628497.0
16	15	11	49	615	239.0	-36078.0	45239.0	-5629749.0
16	15	11	49	615	240.0	-28530.0	48194.0	-5630352.0
16	15	11	49	615	241.0	-16289.0	51311.0	-5629529.0
16	15	11	49	616	242.0	-1990.0	54415.0	-5628889.0
16	15	11	49	616	243.0	22045.0	56894.0	-5629971.0
16	15	11	49	616	244.0	35519.0	59046.0	-5630221.0
16	15	11	49	617	246.0	49159.0	62993.0	-5628631.0
16	15	11	49	617	247.0	57815.0	63997.0	-5629278.0
16	15	11	49	617	248.0	72069.0	63436.0	-5629961.0
16	15	11	49	617	249.0	85799.0	64511.0	-5629240.0
16	15	11	49	618	250.0	102337.0	65573.0	-5628580.0
16	15	11	49	618	251.0	122769.0	66560.0	-5629772.0
16	15	11	49	618	252.0	145127.0	66934.0	-5630018.0
16	15	11	49	642	253.0	173017.0	66948.0	-5629251.0
16	15	11	49	666	254.0	207048.0	68365.0	-5628636.0
16	15	11	49	666	255.0	237683.0	70379.0	-5629972.0
16	15	11	49	667	0.0	259481.0	70514.0	-5630119.0
16	15	11	49	667	1.0	275896.0	70063.0	-5629377.0
16	15	11	49	667	2.0	279870.0	69606.0	-5628595.0
16	15	11	49	668	3.0	268012.0	68281.0	-5629561.0
16	15	11	49	668	4.0	240928.0	67989.0	-5630026.0
16	15	11	49	668	5.0	200500.0	66875.0	-5629324.0
16	15	11	49	669	6.0	148935.0	65263.0	-5628786.0
16	15	11	49	669	7.0	88959.0	63605.0	-5630237.0
16	15	11	49	669	8.0	25156.0	62148.0	-5630223.0
16	15	11	49	670	9.0	-70061.0	61143.0	-5629471.0
16	15	11	49	670	10.0	-247345.0	59481.0	-5628844.0
16	15	11	49	670	11.0	-496152.0	57544.0	-5629704.0
16	15	11	49	671	13.0	-361062.0	53088.0	-5628926.0
16	15	11	49	671	14.0	77768.0	49007.0	-5629927.0
16	15	11	49	671	15.0	357604.0	45936.0	-5630624.0
16	15	11	49	672	16.0	368777.0	43680.0	-5629811.0
16	15	11	49	672	17.0	296796.0	41232.0	-5629246.0
16	15	11	49	672	18.0	215003.0	38968.0	-5630356.0
16	15	11	49	691	19.0	102304.0	36830.0	-5630696.0
16	15	11	49	692	20.0	32958.0	35085.0	-5629797.0
16	15	11	49	692	21.0	-10456.0	34872.0	-5629087.0
16	15	11	49	693	22.0	-61658.0	33488.0	-5629918.0
16	15	11	49	693	23.0	-121721.0	31119.0	-5630978.0
16	15	11	49	693	24.0	-196486.0	28418.0	-5630205.0
16	15	11	49	718	25.0	-282996.0	26140.0	-5629495.0
16	15	11	49	718	26.0	-338269.0	23981.0	-5630144.0
16	15	11	49	719	27.0	-317181.0	21191.0	-5630981.0
16	15	11	49	719	28.0	-261401.0	18250.0	-5630217.0
16	15	11	49	719	29.0	-198954.0	16779.0	-5629646.0
16	15	11	49	720	30.0	-137625.0	14535.0	-5630724.0
16	15	11	49	720	31.0	-86173.0	12398.0	-5631006.0
16	15	11	49	720	32.0	-55761.0	10289.0	-5630204.0
16	15	11	49	721	33.0	-57654.0	9154.0	-5629532.0
16	15	11	49	721	35.0	-60536.0	4868.0	-5630966.0
16	15	11	49	721	36.0	-36919.0	1861.0	-5630180.0
16	15	11	49	722	37.0	-11317.0	-1824.0	-5629398.0
16	15	11	49	722	38.0	3558.0	-3824.0	-5630319.0
16	15	11	49	722	39.0	8058.0	-5743.0	-5631016.0
16	15	11	49	723	40.0	9632.0	-7641.0	-5630282.0
16	15	11	49	723	41.0	20110.0	-9457.0	-5629456.0
16	15	11	49	745	42.0	35431.0	-10963.0	-5630242.0
16	15	11	49	745	43.0	51528.0	-11255.0	-5631120.0
16	15	11	49	746	44.0	66211.0	-10762.0	-5630428.0
16	15	11	49	746	45.0	72541.0	-11920.0	-5629681.0
16	15	11	49	746	46.0	86178.0	-13532.0	-5630776.0
16	15	11	49	747	47.0	110186.0	-14534.0	-5631352.0
16	15	11	49	747	48.0	157514.0	-15622.0	-5630620.0
16	15	11	49	747	49.0	196536.0	-16587.0	-5629833.0
16	15	11	49	748	50.0	220364.0	-17594.0	-5630769.0
16	15	11	49	748	51.0	229709.0	-18044.0	-5631206.0
16	15	11	49	748	52.0	244126.0	-18904.0	-5630511.0
16	15	11	49	749	53.0	240054.0	-20044.0	-5629728.0
16	15	11	49	749	54.0	222198.0	-21019.0	-5630637.0
16	15	11	49	749	55.0	217080.0	-22095.0	-5631316.0
16	15	11	49	750	56.0	211917.0	-23292.0	-5630577.0
16	15	11	49	750	58.0	175092.0	-25092.0	-5630569.0
16	15	11	49	750	59.0	159735.0	-28082.0	-5630616.0
16	15	11	49	750	60.0	148359.0	-29852.0	-5629909.0
16	15	11	49	751	61.0	136364.0	-30479.0	-5630377.0
16	15	11	49	751	62.0	119141.0	-30989.0	-5631329.0
16	15	11	49	751	63.0	100375.0	-32263.0	-5630554.0
16	15	11	49	778	64.0	90714.0	-33046.0	-5629872.0
16	15	11	49	799	65.0	77560.0	-32882.0	-5630464.0
16	15	11	49	800	66.0	60290.0	-31389.0	-5631060.0
16	15	11	49	800	67.0	45943.0	-31456.0	-5630184.0
16	15	11	49	800	68.0	28621.0	-31877.0	-5629487.0
16	15	11	49	801	69.0	17543.0	-32238.0	-5630386.0
16	15	11	49	801	70.0	10707.0	-31824.0	-5631227.0
16	15	11	49	801	71.0	14408.0	-31649.0	-5630398.0
16	15	11	49	802	72.0	25594.0	-32204.0	-5629686.0
16	15	11	49	802	73.0	30327.0	-32119.0	-5630484.0
16	15	11	49	802	74.0	41935.0	-32420.0	-5631210.0
16	15	11	49	802	75.0	56240.0	-32566.0	-5630427.0
16	15	11	49	802	76.0	70406.0	-32234.0	-5629811.0
16	15	11	49	803	77.0	86653.0	-32746.0	-5630856.0
16	15	11	49	803	78.0	101091.0	-33022.0	-5631324.0
16	15	11	49	803	80.0	110826.0	-32762.0	-5629914.0
16	15	11	49	803	81.0	90936.0	-33832.0	-5631104.0
16	15	11	49	804	82.0	68017.0	-35634.0	-5631415.0
16	15	11	49	804	83.0	53909.0	-35819.0	-5630549.0
16	15	11	49	804	84.0	46824.0	-35600.0	-5629824.0
16	15	11	49	804	85.0	40056.0	-35519.0	-5630660.0
16	15	11	49	869	86.0	31350.0	-34852.0	-5631126.0
16	15	11	49	869	87.0	18212.0	-34474.0	-5630381.0
16	15	11	49	870	88.0	10282.0	-31704.0	-5629649.0
16	15	11	49	870	89.0	21084.0	-29682.0	-5630622.0
16	15	11	49	871	90.0	36442.0	-29060.0	-5630924.0
16	15	11	49	872	91.0	51981.0	-28726.0	-5630172.0
16	15	11	49	872	92.0	63267.0	-27670.0	-5630313.0
16	15	11	49	881	93.0	71226.0	-26976.0	-5631597.0
16	15	11	49	882	94.0	80940.0	-26348.0	-5630989.0
16	15	11	49	883	95.0	79737.0	-25784.0	-5630199.0
16	15	11	49	884	96.0	77457.0	-25219.0	-5629915.0
16	15	11	49	884	97.0	78616.0	-24565.0	-5630632.0
16	15	11	49	885	98.0	78442.0	-24543.0	-5630054.0
16	15	11	49	886	99.0	77209.0	-23806.0	-5629605.0
16	15	11	49	886	100.0	77314.0	-22869.0	-5631009.0
16	15	11	49	887	125.0	-119883.0	-8015.0	-5631181.0
16	15	11	49	888	126.0	-99611.0	-9602.0	-5630377.0
16	15	11	49	888	127.0	-79127.0	-10609.0	-5630977.0
16	15	11	49	889	128.0	-49767.0	-10126.0	-5631903.0
16	15	11	49	890	129.0	-7755.0	-10087.0	-5631213.0
16	15	11	49	890	130.0	27053.0	-9242.0	-5630361.0
16	15	11	49	919	131.0	47683.0	-8942.0	-5630338.0
16	15	11	49	920	132.0	63205.0	-8549.0	-5631589.0
16	15	11	49	920	133.0	75769.0	-6502.0	-5631062.0
16	15	11	49	921	134.0	82658.0	-5519.0	-5630273.0
16	15	11	49	921	135.0	106678.0	-4778.0	-5630279.0
16	15	11	49	921	136.0	136768.0	-5294.0	-5631014.0
16	15	11	49	922	137.0	169930.0	-5006.0	-5630357.0
16	15	11	49	922	138.0	204519.0	-4381.0	-5630382.0
16	15	11	49	922	139.0	240958.0	-3806.0	-5631743.0
16	15	11	49	923	140.0	277186.0	-3371.0	-5631256.0
16	15	11	49	948	141.0	303708.0	-3558.0	-5630479.0
16	15	11	49	949	142.0	306926.0	-3365.0	-5630463.0
16	15	11	49	949	143.0	293179.0	-2687.0	-5631656.0
16	15	11	49	950	144.0	269027.0	-2741.0	-5631146.0
16	15	11	49	950	145.0	239787.0	-2925.0	-5630354.0
16	15	11	49	950	147.0	-342867.0	-2762.0	-5631982.0
16	15	11	49	951	148.0	-893843.0	-3624.0	-5631222.0
16	15	11	49	951	149.0	-1233930.0	-5717.0	-5630324.0
16	15	11	49	977	150.0	-1222639.0	-5959.0	-5630537.0
16	15	11	49	977	151.0	-937546.0	-5791.0	-5631761.0
16	15	11	49	978	152.0	-551021.0	-5287.0	-5631296.0
16	15	11	49	978	153.0	-213738.0	-5324.0	-5630431.0
16	15	11	49	978	154.0	-42350.0	-5246.0	-5630547.0
16	15	11	49	978	155.0	44981.0	-3162.0	-5631897.0
16	15	11	49	979	156.0	165413.0	-2434.0	-5631486.0
16	15	11	49	979	157.0	246243.0	-2623.0	-5630615.0
16	15	11	49	979	158.0	213729.0	-2280.0	-5631046.0
16	15	11	49	980	159.0	111910.0	-1968.0	-5631961.0
16	15	11	49	980	160.0	59538.0	-1902.0	-5631333.0
16	15	11	49	980	161.0	111006.0	-1472.0	-5630499.0
16	15	11	49	981	162.0	191681.0	-1648.0	-5631184.0
16	15	11	49	981	163.0	286859.0	-1637.0	-5631863.0
16	15	11	49	981	164.0	388141.0	-1405.0	-5631169.0
16	15	11	49	982	170.0	274093.0	-1317.0	-5631348.0
16	15	11	49	982	171.0	187237.0	-3128.0	-5631603.0
16	15	11	49	982	172.0	123605.0	-4332.0	-5630879.0
16	15	11	49	983	173.0	93021.0	-5009.0	-5630875.0
16	15	11	49	983	174.0	50834.0	-5271.0	-5631945.0
16	15	11	49	983	175.0	-416.0	-5059.0	-5631297.0
16	15	11	50	6	176.0	-39512.0	-5402.0	-5630574.0
16	15	11	50	9	177.0	-73081.0	-5204.0	-5631246.0
16	15	11	50	10	178.0	-115496.0	-2946.0	-5632095.0
16	15	11	50	12	179.0	-150361.0	-1749.0	-5631256.0
16	15	11	50	13	180.0	-181116.0	-1479.0	-5630474.0
16	15	11	50	15	181.0	-206944.0	-1817.0	-5630974.0
16	15	11	50	16	182.0	-247466.0	-1319.0	-5632177.0
16	15	11	50	17	183.0	-296637.0	-1157.0	-5631501.0
16	15	11	50	18	184.0	-345718.0	-1253.0	-5630719.0
16	15	11	50	20	185.0	-377339.0	-611.0	-5631372.0
16	15	11	50	21	186.0	-399926.0	-164.0	-5632133.0
16	15	11	50	23	187.0	-420057.0	-419.0	-5631402.0
16	15	11	50	24	188.0	-445368.0	-320.0	-5630652.0
16	15	11	50	25	189.0	-475668.0	-444.0	-5631586.0
16	15	11	50	27	190.0	-499460.0	-1175.0	-5632154.0
16	15	11	50	28	192.0	-450920.0	-974.0	-5630622.0
16	15	11	50	29	193.0	-405026.0	-1784.0	-5631567.0
16	15	11	50	30	194.0	-359780.0	-3705.0	-5632346.0
16	15	11	50	31	195.0	-326239.0	-4142.0	-5631581.0
16	15	11	50	32	196.0	-275612.0	-4026.0	-5630732.0
16	15	11	50	32	197.0	-183742.0	-3908.0	-5631403.0
16	15	11	50	32	198.0	-102495.0	-3854.0	-5632369.0
16	15	11	50	47	199.0	-54737.0	-3582.0	-5631735.0
16	15	11	50	48	200.0	-35593.0	-3300.0	-5630892.0
16	15	11	50	49	201.0	-5742.0	-1437.0	-5631449.0
16	15	11	50	49	202.0	35312.0	29.0	-5632265.0
16	15	11	50	50	203.0	58528.0	78.0	-5631602.0
16	15	11	50	50	204.0	72416.0	72.0	-5630927.0
16	15	11	50	67	205.0	87838.0	446.0	-5632134.0
16	15	11	50	67	206.0	95414.0	498.0	-5632357.0
16	15	11	50	68	207.0	93344.0	361.0	-5631606.0
16	15	11	50	68	208.0	88962.0	904.0	-5631107.0
16	15	11	50	69	209.0	72225.0	1102.0	-5632123.0
16	15	11	50	69	210.0	50049.0	678.0	-5631784.0
16	15	11	50	69	211.0	42929.0	989.0	-5631017.0
16	15	11	50	70	212.0	42342.0	912.0	-5631441.0
16	15	11	50	70	213.0	31945.0	1189.0	-5632366.0
16	15	11	50	70	215.0	33367.0	1438.0	-5630920.0
16	15	11	50	71	216.0	50359.0	-214.0	-5631697.0
16	15	11	50	71	217.0	61460.0	-1079.0	-5632462.0
16	15	11	50	71	218.0	63093.0	-459.0	-5631636.0
16	15	11	50	72	219.0	59643.0	107.0	-5631037.0
16	15	11	50	72	220.0	53703.0	648.0	-5632033.0
16	15	11	50	94	221.0	61890.0	1446.0	-5632520.0
16	15	11	50	95	222.0	73778.0	2346.0	-5631654.0
16	15	11	50	95	223.0	85956.0	4819.0	-5631169.0
16	15	11	50	96	224.0	91014.0	7219.0	-5632234.0
16	15	11	50	96	225.0	100993.0	8124.0	-5632204.0
16	15	11	50	97	226.0	106879.0	9789.0	-5631327.0
16	15	11	50	98	227.0	112271.0	11871.0	-5630845.0
16	15	11	50	98	228.0	125720.0	13549.0	-5632098.0
16	15	11	50	99	229.0	141486.0	15238.0	-5632128.0
16	15	11	50	99	230.0	143663.0	17440.0	-5631316.0
16	15	11	50	100	231.0	138405.0	19741.0	-5630754.0
16	15	11	50	101	232.0	133233.0	21869.0	-5632100.0
16	15	11	50	101	233.0	122928.0	24391.0	-5632285.0
16	15	11	50	102	234.0	111008.0	26536.0	-5631501.0
16	15	11	50	103	235.0	100108.0	29106.0	-5631170.0
16	15	11	50	104	237.0	60994.0	35129.0	-5632332.0
16	15	11	50	104	238.0	42302.0	37584.0	-5631522.0
16	15	11	50	105	239.0	30893.0	38843.0	-5631097.0
16	15	11	50	105	240.0	23627.0	41896.0	-5632462.0
16	15	11	50	106	241.0	16375.0	44949.0	-5632340.0
16	15	11	50	106	242.0	6054.0	48104.0	-5631557.0
16	15	11	50	107	243.0	-9953.0	51025.0	-5630796.0
16	15	11	50	138	244.0	-26017.0	53877.0	-5631942.0
16	15	11	50	139	245.0	-34106.0	57350.0	-5632316.0
16	15	11	50	139	246.0	-40866.0	61755.0	-5631562.0
16	15	11	50	140	247.0	-45698.0	64093.0	-5631094.0
16	15	11	50	141	248.0	-39500.0	66141.0	-5632536.0
16	15	11	50	142	249.0	-32642.0	69151.0	-5632382.0
16	15	11	50	142	250.0	-27656.0	71046.0	-5631623.0
16	15	11	50	143	251.0	-11021.0	72479.0	-5631049.0
16	15	11	50	144	252.0	12327.0	73651.0	-5631810.0
16	15	11	50	145	253.0	36207.0	74508.0	-5631474.0
16	15	11	50	146	254.0	60741.0	75419.0	-5631054.0
16	15	11	50	146	255.0	92868.0	75904.0	-5632307.0
16	15	11	50	147	0.0	124121.0	75707.0	-5632380.0
16	15	11	50	153	1.0	149482.0	75391.0	-5631484.0
16	15	11	50	153	2.0	161869.0	75471.0	-5630933.0
16	15	11	50	154	4.0	181383.0	74165.0	-5632456.0
16	15	11	50	154	5.0	185099.0	70763.0	-5631611.0
16	15	11	50	154	6.0	194186.0	68990.0	-5630960.0
16	15	11	50	155	7.0	196289.0	67463.0	-5631816.0
16	15	11	50	155	8.0	186623.0	65564.0	-5632591.0
16	15	11	50	155	9.0	140543.0	63751.0	-5631794.0
16	15	11	50	184	10.0	82744.0	61968.0	-5631266.0
16	15	11	50	184	11.0	35315.0	60576.0	-5632409.0
16	15	11	50	184	12.0	-22223.0	60934.0	-5632552.0
16	15	11	50	185	13.0	-106121.0	60311.0	-5631702.0
16	15	11	50	186	14.0	-269357.0	57817.0	-5631321.0
16	15	11	50	186	15.0	-482446.0	55189.0	-5632761.0
16	15	11	50	188	16.0	-536687.0	53678.0	-5632702.0
16	15	11	50	188	17.0	-303937.0	51904.0	-5631876.0
16	15	11	50	189	18.0	43424.0	49660.0	-5631352.0
16	15	11	50	190	19.0	227847.0	46609.0	-5632595.0
16	15	11	50	214	20.0	211636.0	43921.0	-5632728.0
16	15	11	50	215	21.0	142879.0	41914.0	-5631922.0
16	15	11	50	215	22.0	69380.0	39591.0	-5631334.0
16	15	11	50	215	23.0	-24095.0	37438.0	-5632581.0
16	15	11	50	216	24.0	-104472.0	35528.0	-5632684.0
16	15	11	50	216	26.0	-238697.0	30202.0	-5631429.0
16	15	11	50	216	27.0	-267322.0	26976.0	-5632981.0
16	15	11	50	217	28.0	-247463.0	22786.0	-5632899.0
16	15	11	50	217	29.0	-177925.0	19528.0	-5632124.0
16	15	11	50	217	30.0	-67476.0	16792.0	-5631661.0
16	15	11	50	217	31.0	27087.0	14699.0	-5632986.0
16	15	11	50	218	32.0	81768.0	12439.0	-5632831.0
16	15	11	50	246	33.0	115493.0	10183.0	-5632097.0
16	15	11	50	246	34.0	125816.0	8851.0	-5631694.0
16	15	11	50	247	35.0	118816.0	8596.0	-5632663.0
16	15	11	50	247	36.0	113121.0	7149.0	-5632202.0
16	15	11	50	247	37.0	119819.0	5562.0	-5631444.0
16	15	11	50	248	38.0	111613.0	3037.0	-5631822.0
16	15	11	50	277	39.0	96171.0	1239.0	-5632881.0
16	15	11	50	278	40.0	85983.0	-131.0	-5632158.0
16	15	11	50	278	41.0	78863.0	-2019.0	-5631572.0
16	15	11	50	278	42.0	72656.0	-3896.0	-5632626.0
16	15	11	50	279	43.0	63411.0	-5816.0	-5633149.0
16	15	11	50	279	44.0	51456.0	-7572.0	-5632317.0
16	15	11	50	279	45.0	28328.0	-8699.0	-5631822.0
16	15	11	50	279	46.0	5378.0	-9920.0	-5632961.0
16	15	11	50	307	47.0	-9211.0	-11207.0	-5633142.0
16	15	11	50	307	49.0	1258.0	-14846.0	-5631918.0
16	15	11	50	307	50.0	27523.0	-18210.0	-5633194.0
16	15	11	50	307	51.0	65998.0	-19907.0	-5633112.0
16	15	11	50	308	52.0	106544.0	-18959.0	-5632195.0
16	15	11	50	308	53.0	137707.0	-18884.0	-5631602.0
16	15	11	50	308	54.0	161354.0	-19359.0	-5632609.0
16	15	11	50	308	71.0	90841.0	-32151.0	-5633348.0
16	15	11	50	308	72.0	75452.0	-34382.0	-5632550.0
16	15	11	50	309	73.0	70490.0	-36344.0	-5632096.0
16	15	11	50	309	74.0	74579.0	-36323.0	-5633509.0
16	15	11	50	309	75.0	74507.0	-36717.0	-5633435.0
16	15	11	50	309	76.0	84473.0	-37186.0	-5632654.0
16	15	11	50	309	77.0	89703.0	-37557.0	-5632283.0
16	15	11	50	340	78.0	104589.0	-37997.0	-5633572.0
16	15	11	50	340	79.0	124212.0	-37109.0	-5633301.0
16	15	11	50	340	80.0	138490.0	-34863.0	-5632522.0
16	15	11	50	340	81.0	142455.0	-34602.0	-5632448.0
16	15	11	50	341	82.0	154576.0	-34499.0	-5633354.0
16	15	11	50	341	83.0	162779.0	-33695.0	-5632704.0
16	15	11	50	341	84.0	163385.0	-33304.0	-5632106.0
16	15	11	50	342	85.0	159698.0	-33281.0	-5633246.0
16	15	11	50	342	86.0	154361.0	-32775.0	-5633568.0
16	15	11	50	342	87.0	139789.0	-33103.0	-5632716.0
16	15	11	50	342	88.0	114285.0	-32914.0	-5632249.0
16	15	11	50	342	89.0	87985.0	-32571.0	-5633405.0
16	15	11	50	343	90.0	66985.0	-32238.0	-5633436.0
16	15	11	50	343	91.0	44586.0	-31977.0	-5632614.0
16	15	11	50	343	92.0	20216.0	-31107.0	-5632490.0
16	15	11	50	343	94.0	-14281.0	-29546.0	-5633708.0
16	15	11	50	344	95.0	-14792.0	-31210.0	-5632849.0
16	15	11	50	344	96.0	-9788.0	-31441.0	-5632514.0
16	15	11	50	344	97.0	-2927.0	-31019.0	-5633690.0
16	15	11	50	344	98.0	2006.0	-31007.0	-5633595.0
16	15	11	50	344	99.0	6583.0	-30537.0	-5632672.0
16	15	11	50	371	100.0	12449.0	-29832.0	-5632179.0
16	15	11	50	371	101.0	24186.0	-28887.0	-5633351.0
16	15	11	50	371	102.0	43295.0	-26011.0	-5633562.0
16	15	11	50	372	103.0	53092.0	-24536.0	-5632682.0
16	15	11	50	372	104.0	52863.0	-23445.0	-5632377.0
16	15	11	50	372	105.0	54318.0	-22746.0	-5633542.0
16	15	11	50	372	106.0	52431.0	-21866.0	-5633327.0
16	15	11	50	373	107.0	49020.0	-21638.0	-5632494.0
16	15	11	50	373	108.0	44013.0	-21205.0	-5632669.0
16	15	11	50	373	109.0	46221.0	-20247.0	-5633767.0
16	15	11	50	373	110.0	51963.0	-19571.0	-5633221.0
16	15	11	50	374	111.0	56225.0	-18928.0	-5632356.0
16	15	11	50	374	112.0	61583.0	-18132.0	-5632651.0
16	15	11	50	374	113.0	61978.0	-16715.0	-5633758.0
16	15	11	50	374	114.0	67318.0	-16065.0	-5633171.0
16	15	11	50	403	116.0	56353.0	-15338.0	-5632614.0
16	15	11	50	403	117.0	57530.0	-16168.0	-5633267.0
16	15	11	50	403	118.0	52626.0	-17186.0	-5632566.0
16	15	11	50	404	119.0	41682.0	-17136.0	-5632194.0
16	15	11	50	404	120.0	19340.0	-16211.0	-5633478.0
16	15	11	50	404	121.0	-12378.0	-15577.0	-5633191.0
16	15	11	50	434	122.0	-32822.0	-14733.0	-5632407.0
16	15	11	50	434	123.0	-46282.0	-13932.0	-5632278.0
16	15	11	50	435	124.0	-57954.0	-11434.0	-5633499.0
16	15	11	50	435	125.0	-60306.0	-9284.0	-5633034.0
16	15	11	50	435	126.0	-68542.0	-8041.0	-5632224.0
16	15	11	50	435	127.0	-79625.0	-7766.0	-5632092.0
16	15	11	50	436	128.0	-87256.0	-7493.0	-5633338.0
16	15	11	50	436	129.0	-98238.0	-7263.0	-5632913.0
16	15	11	50	436	130.0	-109256.0	-6396.0	-5632074.0
16	15	11	50	436	131.0	-113147.0	-5932.0	-5632077.0
16	15	11	50	437	132.0	-111335.0	-5279.0	-5633246.0
16	15	11	50	437	133.0	-105525.0	-4793.0	-5632771.0
16	15	11	50	437	134.0	-105747.0	-4594.0	-5631899.0
16	15	11	50	437	135.0	-101649.0	-3933.0	-5631870.0
16	15	11	50	438	136.0	-89194.0	-3599.0	-5632835.0
16	15	11	50	438	139.0	-21751.0	-3596.0	-5632672.0
16	15	11	50	438	140.0	-6617.0	-5571.0	-5633234.0
16	15	11	50	438	141.0	7507.0	-6102.0	-5632521.0
16	15	11	50	439	142.0	18369.0	-5832.0	-5631732.0
16	15	11	50	439	143.0	31228.0	-5798.0	-5632700.0
16	15	11	50	439	144.0	58583.0	-5721.0	-5633407.0
16	15	11	50	471	145.0	98760.0	-5914.0	-5632720.0
16	15	11	50	471	146.0	136938.0	-4726.0	-5631849.0
16	15	11	50	472	147.0	171131.0	-2255.0	-5632052.0
16	15	11	50	472	148.0	207343.0	-1250.0	-5632926.0
16	15	11	50	472	149.0	243776.0	-1024.0	-5632322.0
16	15	11	50	472	150.0	265991.0	-743.0	-5631531.0
16	15	11	50	473	151.0	270093.0	-871.0	-5632497.0
16	15	11	50	473	152.0	244076.0	-297.0	-5633290.0
16	15	11	50	473	153.0	186481.0	-608.0	-5632572.0
16	15	11	50	473	154.0	132690.0	81.0	-5631869.0
16	15	11	50	474	155.0	88593.0	556.0	-5633000.0
16	15	11	50	474	156.0	-158295.0	609.0	-5633400.0
16	15	11	50	474	157.0	-715735.0	843.0	-5632575.0
16	15	11	50	474	158.0	-1279791.0	640.0	-5631770.0
16	15	11	50	475	159.0	-1497829.0	97.0	-5632380.0
16	15	11	50	475	161.0	-946174.0	-198.0	-5631894.0
16	15	11	50	475	162.0	-520488.0	-1316.0	-5632591.0
16	15	11	50	475	163.0	-224627.0	-2528.0	-5633235.0
16	15	11	50	475	164.0	-106180.0	-3139.0	-5632403.0
16	15	11	50	476	165.0	-7116.0	-3492.0	-5631647.0
16	15	11	50	476	166.0	147487.0	-3337.0	-5632231.0
16	15	11	50	507	167.0	238415.0	-3310.0	-5633275.0
16	15	11	50	507	168.0	193232.0	-3411.0	-5632554.0
16	15	11	50	508	169.0	46720.0	-1825.0	-5631867.0
16	15	11	50	508	170.0	-67294.0	-851.0	-5632634.0
16	15	11	50	508	171.0	-9314.0	-700.0	-5633322.0
16	15	11	50	509	172.0	153602.0	-481.0	-5632537.0
16	15	11	50	509	173.0	327419.0	-1021.0	-5632016.0
16	15	11	50	509	174.0	452081.0	-1151.0	-5633088.0
16	15	11	50	509	175.0	467613.0	-766.0	-5633191.0
16	15	11	50	509	176.0	420411.0	-276.0	-5632355.0
16	15	11	50	510	177.0	390764.0	-156.0	-5631793.0
16	15	11	50	510	178.0	350621.0	-373.0	-5632980.0
16	15	11	50	510	179.0	274211.0	-32.0	-5633051.0
16	15	11	50	510	180.0	182548.0	-30.0	-5632213.0
16	15	11	50	546	181.0	118827.0	-358.0	-5631615.0
16	15	11	50	547	183.0	65365.0	312.0	-5633120.0
16	15	11	50	547	184.0	25578.0	-135.0	-5632377.0
16	15	11	50	547	185.0	-24325.0	-2049.0	-5631711.0
16	15	11	50	547	186.0	-75374.0	-3128.0	-5632862.0
16	15	11	50	548	187.0	-128167.0	-3757.0	-5633083.0
16	15	11	50	548	188.0	-182113.0	-3926.0	-5632326.0
16	15	11	50	548	189.0	-220804.0	-3602.0	-5631929.0
16	15	11	50	548	190.0	-250127.0	-3368.0	-5632683.0
16	15	11	50	549	191.0	-264051.0	-2924.0	-5632167.0
16	15	11	50	549	192.0	-271264.0	-1424.0	-5631771.0
16	15	11	50	549	193.0	-285482.0	-523.0	-5633077.0
16	15	11	50	549	194.0	-306409.0	-112.0	-5633004.0
16	15	11	50	549	195.0	-327841.0	50.0	-5632072.0
16	15	11	50	550	196.0	-346707.0	389.0	-5631509.0
16	15	11	50	550	197.0	-356557.0	-130.0	-5632707.0
16	15	11	50	586	198.0	-362405.0	21.0	-5633114.0
16	15	11	50	586	199.0	-366263.0	467.0	-5632236.0
16	15	11	50	586	200.0	-359707.0	563.0	-5631844.0
16	15	11	50	587	201.0	-347640.0	1041.0	-5632966.0
16	15	11	50	587	202.0	-322840.0	1211.0	-5632861.0
16	15	11	50	587	203.0	-274484.0	1239.0	-5631991.0
16	15	11	50	587	204.0	-218401.0	1493.0	-5631838.0
16	15	11	50	587	206.0	-107366.0	1101.0	-5632917.0
16	15	11	50	588	207.0	-50603.0	-327.0	-5632051.0
16	15	11	50	588	208.0	-2538.0	-1592.0	-5632024.0
16	15	11	50	588	209.0	35164.0	-1682.0	-5633324.0
16	15	11	50	589	210.0	59737.0	-1941.0	-5632949.0
16	15	11	50	589	211.0	84186.0	-1837.0	-5632079.0
16	15	11	50	627	212.0	110223.0	-1762.0	-5631667.0
16	15	11	50	628	213.0	139469.0	-1527.0	-5633005.0
16	15	11	50	628	214.0	159896.0	697.0	-5632880.0
16	15	11	50	628	215.0	168703.0	2027.0	-5632085.0
16	15	11	50	628	216.0	176169.0	1799.0	-5631785.0
16	15	11	50	629	217.0	181052.0	2352.0	-5633285.0
16	15	11	50	629	218.0	184027.0	2590.0	-5633064.0
16	15	11	50	629	219.0	180083.0	3055.0	-5632309.0
16	15	11	50	629	220.0	170739.0	3419.0	-5632497.0
16	15	11	50	630	221.0	160166.0	2921.0	-5633247.0
16	15	11	50	630	222.0	153403.0	2862.0	-5632574.0
16	15	11	50	630	223.0	150066.0	3529.0	-5632023.0
16	15	11	50	630	224.0	142076.0	3582.0	-5633228.0
16	15	11	50	631	225.0	126418.0	3641.0	-5633334.0
16	15	11	50	631	226.0	104931.0	4184.0	-5632487.0
16	15	11	50	631	228.0	80762.0	4286.0	-5632927.0
16	15	11	50	631	229.0	71736.0	4805.0	-5633227.0
16	15	11	50	632	230.0	65698.0	3779.0	-5632367.0
16	15	11	50	632	231.0	71099.0	4342.0	-5631796.0
16	15	11	50	632	232.0	76959.0	5490.0	-5632886.0
16	15	11	50	633	233.0	78958.0	6247.0	-5633195.0
16	15	11	50	633	234.0	73639.0	7192.0	-5632344.0
16	15	11	50	668	235.0	65714.0	8429.0	-5631864.0
16	15	11	50	668	236.0	60396.0	10241.0	-5633002.0
16	15	11	50	669	237.0	58978.0	13873.0	-5633159.0
16	15	11	50	669	238.0	56534.0	16293.0	-5632290.0
16	15	11	50	669	239.0	53197.0	18341.0	-5632008.0
16	15	11	50	669	240.0	54349.0	20079.0	-5633301.0
16	15	11	50	670	241.0	51004.0	21939.0	-5633126.0
16	15	11	50	670	242.0	40538.0	24413.0	-5632224.0
16	15	11	50	670	243.0	21779.0	26889.0	-5631732.0
16	15	11	50	670	244.0	2896.0	29554.0	-5632864.0
16	15	11	50	671	245.0	-8471.0	32153.0	-5633034.0
16	15	11	50	671	246.0	-12797.0	35371.0	-5632164.0
16	15	11	50	671	247.0	-21743.0	38134.0	-5631927.0
16	15	11	50	709	248.0	-27205.0	40963.0	-5633376.0
16	15	11	50	709	249.0	-38527.0	44440.0	-5633234.0
16	15	11	50	710	251.0	-68562.0	50346.0	-5632360.0
16	15	11	50	710	252.0	-79842.0	52053.0	-5633607.0
16	15	11	50	710	253.0	-83154.0	53841.0	-5633146.0
16	15	11	50	710	254.0	-76631.0	56406.0	-5632276.0
16	15	11	50	710	255.0	-61284.0	58632.0	-5632201.0
16	15	11	50	711	0.0	-43827.0	61954.0	-5633586.0
16	15	11	50	711	1.0	-29637.0	65729.0	-5633195.0
16	15	11	50	711	2.0	-20227.0	67615.0	-5632378.0
16	15	11	50	712	3.0	-14671.0	69620.0	-5632111.0
16	15	11	50	712	4.0	-9907.0	70868.0	-5633406.0
16	15	11	50	712	5.0	-6142.0	72569.0	-5633036.0
16	15	11	50	713	6.0	2136.0	73526.0	-5632227.0
16	15	11	50	713	7.0	8326.0	74399.0	-5632164.0
16	15	11	50	713	17.0	130469.0	69581.0	-5632438.0
16	15	11	50	713	18.0	109788.0	67578.0	-5632499.0
16	15	11	50	714	19.0	79486.0	63831.0	-5633773.0
16	15	11	50	714	20.0	53843.0	61686.0	-5633311.0
16	15	11	50	714	21.0	16742.0	59923.0	-5632461.0
16	15	11	50	714	22.0	-76189.0	57867.0	-5632396.0
16	15	11	50	714	23.0	-258165.0	55539.0	-5633633.0
16	15	11	50	750	24.0	-454391.0	53534.0	-5633281.0
16	15	11	50	750	25.0	-449189.0	52159.0	-5632414.0
16	15	11	50	750	26.0	-111960.0	52015.0	-5632520.0
16	15	11	50	750	27.0	231292.0	50269.0	-5633799.0
16	15	11	50	751	28.0	311287.0	47549.0	-5633344.0
16	15	11	50	751	29.0	244441.0	45809.0	-5632486.0
16	15	11	50	751	30.0	147939.0	43448.0	-5633114.0
16	15	11	50	752	31.0	-9177.0	41089.0	-5634024.0
16	15	11	50	752	32.0	-137872.0	38636.0	-5633387.0
16	15	11	50	752	33.0	-205919.0	35910.0	-5632546.0
16	15	11	50	752	34.0	-245526.0	33470.0	-5633309.0
16	15	11	50	753	35.0	-225656.0	31339.0	-5634074.0
16	15	11	50	753	36.0	-149741.0	29167.0	-5633396.0
16	15	11	50	753	37.0	-78420.0	26878.0	-5632531.0
16	15	11	50	753	38.0	-35106.0	24632.0	-5632888.0
16	15	11	50	754	40.0	27970.0	19626.0	-5633166.0
16	15	11	50	754	41.0	27589.0	15098.0	-5632332.0
16	15	11	50	754	42.0	16188.0	11754.0	-5632847.0
16	15	11	50	754	43.0	15197.0	9269.0	-5633965.0
16	15	11	50	755	44.0	16894.0	7352.0	-5633377.0
16	15	11	50	755	45.0	26173.0	5343.0	-5632576.0
16	15	11	50	793	46.0	28092.0	3358.0	-5633364.0
16	15	11	50	793	47.0	19500.0	1669.0	-5634222.0
16	15	11	50	793	48.0	-3311.0	1674.0	-5633505.0
16	15	11	50	794	49.0	-30352.0	289.0	-5632723.0
16	15	11	50	794	50.0	-55600.0	-1035.0	-5633277.0
16	15	11	50	794	51.0	-85021.0	-2774.0	-5633478.0
16	15	11	50	794	52.0	-105905.0	-4677.0	-5632696.0
16	15	11	50	795	53.0	-104906.0	-6041.0	-5632767.0
16	15	11	50	795	54.0	-103704.0	-8053.0	-5634310.0
16	15	11	50	795	55.0	-94052.0	-10031.0	-5633836.0
16	15	11	50	795	56.0	-71789.0	-11333.0	-5633087.0
16	15	11	50	796	57.0	-45399.0	-11986.0	-5633010.0
16	15	11	50	796	58.0	-8794.0	-13137.0	-5634098.0
16	15	11	50	796	59.0	31621.0	-14381.0	-5633548.0
16	15	11	50	796	60.0	77924.0	-15597.0	-5632799.0
16	15	11	50	796	62.0	146266.0	-18142.0	-5634173.0
16	15	11	50	797	63.0	174275.0	-20237.0	-5633422.0
16	15	11	50	797	64.0	199856.0	-23882.0	-5632675.0
16	15	11	50	797	65.0	214426.0	-24944.0	-5633259.0
16	15	11	50	797	66.0	217405.0	-26042.0	-5633895.0
16	15	11	50	798	67.0	222063.0	-27167.0	-5633152.0
16	15	11	50	798	68.0	220534.0	-27852.0	-5632382.0
16	15	11	50	840	69.0	211160.0	-28716.0	-5633030.0
16	15	11	50	840	70.0	196612.0	-28911.0	-5633682.0
16	15	11	50	841	71.0	182277.0	-27923.0	-5633002.0
16	15	11	50	841	72.0	165437.0	-28339.0	-5632190.0
16	15	11	50	841	73.0	146443.0	-28912.0	-5633140.0
16	15	11	50	841	74.0	127790.0	-28903.0	-5633825.0
16	15	11	50	842	75.0	112857.0	-29551.0	-5633127.0
16	15	11	50	842	76.0	97406.0	-29647.0	-5632407.0
16	15	11	50	842	77.0	88839.0	-29794.0	-5633567.0
16	15	11	50	843	78.0	83216.0	-30003.0	-5633957.0
16	15	11	50	843	79.0	78624.0	-30566.0	-5633214.0
16	15	11	50	843	80.0	64462.0	-31194.0	-5632527.0
16	15	11	50	843	81.0	51789.0	-31387.0	-5633704.0
16	15	11	50	844	82.0	47644.0	-32208.0	-5633924.0
16	15	11	50	844	83.0	56799.0	-31936.0	-5633147.0
16	15	11	50	844	85.0	82161.0	-32059.0	-5633191.0
16	15	11	50	844	86.0	92967.0	-34369.0	-5633232.0
16	15	11	50	845	87.0	94843.0	-35369.0	-5632545.0
16	15	11	50	845	88.0	99144.0	-35631.0	-5633115.0
16	15	11	50	845	89.0	112739.0	-36071.0	-5634189.0
16	15	11	50	845	90.0	132728.0	-36247.0	-5633449.0
16	15	11	50	889	91.0	154434.0	-36488.0	-5632840.0
16	15	11	50	889	92.0	162634.0	-35852.0	-5633756.0
16	15	11	50	889	93.0	163595.0	-34080.0	-5634384.0
16	15	11	50	889	94.0	161388.0	-33272.0	-5633554.0
16	15	11	50	890	95.0	158638.0	-33051.0	-5632951.0
16	15	11	50	890	96.0	153047.0	-32426.0	-5634039.0
16	15	11	50	890	97.0	147958.0	-31975.0	-5634532.0
16	15	11	50	890	98.0	136226.0	-31441.0	-5633646.0
16	15	11	50	891	99.0	120045.0	-30399.0	-5632871.0
16	15	11	50	891	100.0	90526.0	-30310.0	-5633553.0
16	15	11	50	891	101.0	58214.0	-30406.0	-5634409.0
16	15	11	50	892	102.0	38894.0	-30046.0	-5633634.0
16	15	11	50	892	103.0	37527.0	-29458.0	-5632901.0
16	15	11	50	892	104.0	29369.0	-29319.0	-5633794.0
16	15	11	50	892	105.0	12320.0	-29208.0	-5634307.0
16	15	11	50	893	107.0	-1370.0	-27892.0	-5633059.0
16	15	11	50	893	108.0	-7880.0	-28063.0	-5634445.0
16	15	11	50	893	109.0	-5869.0	-29191.0	-5634492.0
16	15	11	50	893	110.0	-1541.0	-28880.0	-5633679.0
16	15	11	50	893	111.0	3143.0	-28409.0	-5633104.0
16	15	11	50	943	112.0	5232.0	-27930.0	-5634357.0
16	15	11	50	943	113.0	7229.0	-27419.0	-5634475.0
16	15	11	50	943	114.0	6321.0	-26467.0	-5633671.0
16	15	11	50	944	115.0	8174.0	-24319.0	-5632916.0
16	15	11	50	944	116.0	10783.0	-21644.0	-5634027.0
16	15	11	50	944	117.0	19125.0	-20595.0	-5634390.0
16	15	11	50	944	118.0	20888.0	-19754.0	-5633647.0
16	15	11	50	944	119.0	18776.0	-19081.0	-5632912.0
16	15	11	50	945	120.0	24485.0	-17857.0	-5634044.0
16	15	11	50	945	121.0	28724.0	-17069.0	-5634434.0
16	15	11	50	945	122.0	27224.0	-16664.0	-5633707.0
16	15	11	50	945	123.0	20121.0	-15984.0	-5633281.0
16	15	11	50	945	124.0	9608.0	-15202.0	-5634411.0
16	15	11	50	946	125.0	5378.0	-14422.0	-5634039.0
16	15	11	50	946	126.0	-2250.0	-13519.0	-5633278.0
16	15	11	50	946	130.0	-11450.0	-11351.0	-5633327.0
16	15	11	50	946	131.0	-21537.0	-12722.0	-5633278.0
16	15	11	50	947	132.0	-37034.0	-13118.0	-5634677.0
16	15	11	50	947	133.0	-58816.0	-13088.0	-5634141.0
16	15	11	50	947	134.0	-79762.0	-12407.0	-5633341.0
16	15	11	50	947	135.0	-96237.0	-11796.0	-5633348.0
16	15	11	50	994	136.0	-108128.0	-11110.0	-5634752.0
16	15	11	50	995	137.0	-119292.0	-10173.0	-5634282.0
16	15	11	50	995	138.0	-135646.0	-7334.0	-5633490.0
16	15	11	50	995	139.0	-149649.0	-5825.0	-5633677.0
16	15	11	50	996	140.0	-151097.0	-5482.0	-5634986.0
16	15	11	50	996	141.0	-146636.0	-5396.0	-5634415.0
16	15	11	51	47	142.0	-137918.0	-4954.0	-5633628.0
16	15	11	51	47	143.0	-133287.0	-4542.0	-5634064.0
16	15	11	51	48	144.0	-121624.0	-4035.0	-5635114.0
16	15	11	51	48	145.0	-102053.0	-3095.0	-5634451.0
16	15	11	51	48	146.0	-82702.0	-2472.0	-5633609.0
16	15	11	51	48	147.0	-56856.0	-2146.0	-5633683.0
16	15	11	51	49	148.0	-46131.0	-1701.0	-5634962.0
16	15	11	51	49	149.0	-38645.0	-1962.0	-5634540.0
16	15	11	51	49	150.0	-28166.0	-1664.0	-5633675.0
16	15	11	51	49	152.0	3236.0	-1064.0	-5635232.0
16	15	11	51	49	175.0	-1401459.0	-762.0	-5635291.0
16	15	11	51	50	176.0	-1260936.0	-2851.0	-5634542.0
16	15	11	51	50	177.0	-867487.0	-3582.0	-5633825.0
16	15	11	51	50	178.0	-435242.0	-3806.0	-5634284.0
16	15	11	51	50	179.0	-141776.0	-3491.0	-5635440.0
16	15	11	51	51	180.0	-59696.0	-3621.0	-5634757.0
16	15	11	51	51	181.0	-59872.0	-3902.0	-5633935.0
16	15	11	51	52	182.0	20008.0	-3429.0	-5634024.0
16	15	11	51	52	183.0	118358.0	-1189.0	-5635117.0
16	15	11	51	52	184.0	133143.0	-819.0	-5634566.0
16	15	11	51	52	185.0	56443.0	-512.0	-5633717.0
16	15	11	51	53	186.0	-57372.0	-656.0	-5634061.0
16	15	11	51	53	187.0	-74017.0	-549.0	-5635257.0
16	15	11	51	53	188.0	22849.0	-175.0	-5634704.0
16	15	11	51	53	189.0	178630.0	56.0	-5633916.0
16	15	11	51	54	190.0	343535.0	18.0	-5634301.0
16	15	11	51	54	191.0	411079.0	-7.0	-5635217.0
16	15	11	51	54	192.0	389015.0	-456.0	-5634538.0
16	15	11	51	55	193.0	366440.0	-420.0	-5633767.0
16	15	11	51	55	194.0	344335.0	-17.0	-5634501.0
16	15	11	51	55	195.0	290371.0	91.0	-5634804.0
16	15	11	51	55	197.0	125698.0	-32.0	-5633215.0
16	15	11	51	56	198.0	77554.0	-1999.0	-5633910.0
16	15	11	51	56	199.0	46675.0	-3621.0	-5634581.0
16	15	11	51	56	200.0	7028.0	-3252.0	-5633888.0
16	15	11	51	56	201.0	-42182.0	-3609.0	-5633078.0
16	15	11	51	110	202.0	-83021.0	-3474.0	-5633961.0
16	15	11	51	111	203.0	-127607.0	-3262.0	-5634634.0
16	15	11	51	111	204.0	-160101.0	-2735.0	-5633941.0
16	15	11	51	112	205.0	-177978.0	-171.0	-5633102.0
16	15	11	51	112	206.0	-190097.0	723.0	-5633771.0
16	15	11	51	113	207.0	-194904.0	1076.0	-5634467.0
16	15	11	51	113	208.0	-205500.0	1133.0	-5633787.0
16	15	11	51	114	209.0	-214081.0	1430.0	-5633159.0
16	15	11	51	114	210.0	-218072.0	1536.0	-5634074.0
16	15	11	51	114	211.0	-221946.0	1536.0	-5633851.0
16	15	11	51	115	212.0	-223853.0	1889.0	-5633105.0
16	15	11	51	115	213.0	-230544.0	2056.0	-5633352.0
16	15	11	51	116	214.0	-227395.0	1668.0	-5634592.0
16	15	11	51	116	215.0	-226142.0	1481.0	-5633937.0
16	15	11	51	116	216.0	-211379.0	1923.0	-5633209.0
16	15	11	51	117	219.0	-126137.0	2232.0	-5633650.0
16	15	11	51	117	220.0	-97564.0	1829.0	-5633007.0
16	15	11	51	117	221.0	-61680.0	-256.0	-5633976.0
16	15	11	51	118	222.0	-20536.0	-607.0	-5634634.0
16	15	11	51	118	223.0	6898.0	-699.0	-5633832.0
16	15	11	51	119	224.0	45833.0	-571.0	-5633112.0
16	15	11	51	119	225.0	71005.0	-141.0	-5633742.0
16	15	11	51	172	226.0	86809.0	187.0	-5634469.0
16	15	11	51	173	227.0	103943.0	517.0	-5633713.0
16	15	11	51	173	228.0	130346.0	2476.0	-5632899.0
16	15	11	51	173	229.0	163324.0	2901.0	-5633382.0
16	15	11	51	174	230.0	180798.0	3164.0	-5634214.0
16	15	11	51	174	231.0	188128.0	2992.0	-5633542.0
16	15	11	51	174	232.0	195831.0	3328.0	-5632792.0
16	15	11	51	175	233.0	194925.0	3585.0	-5633714.0
16	15	11	51	175	234.0	187844.0	3914.0	-5634171.0
16	15	11	51	175	235.0	182666.0	4024.0	-5633457.0
16	15	11	51	175	236.0	184546.0	4214.0	-5632870.0
16	15	11	51	176	237.0	184158.0	4759.0	-5634021.0
16	15	11	51	176	238.0	181534.0	4654.0	-5634072.0
16	15	11	51	176	239.0	168936.0	4476.0	-5633288.0
16	15	11	51	177	240.0	139716.0	5156.0	-5632787.0
16	15	11	51	177	242.0	95311.0	4883.0	-5633837.0
16	15	11	51	177	243.0	76144.0	3375.0	-5633027.0
16	15	11	51	178	244.0	70111.0	2168.0	-5632415.0
16	15	11	51	178	245.0	63951.0	2558.0	-5633254.0
16	15	11	51	178	246.0	56504.0	3046.0	-5632957.0
16	15	11	51	179	247.0	49894.0	3472.0	-5632295.0
16	15	11	51	179	248.0	49273.0	4253.0	-5633027.0
16	15	11	51	232	249.0	50434.0	5571.0	-5633766.0
16	15	11	51	233	250.0	62963.0	8068.0	-5632959.0
16	15	11	51	233	251.0	85524.0	10006.0	-5632477.0
16	15	11	51	234	252.0	106770.0	10971.0	-5633700.0
16	15	11	51	234	253.0	116695.0	12172.0	-5633907.0
16	15	11	51	234	254.0	113896.0	13769.0	-5633033.0
16	15	11	51	234	255.0	113059.0	15657.0	-5632547.0
16	15	11	51	235	0.0	115748.0	17243.0	-5633761.0
16	15	11	51	235	1.0	107113.0	19404.0	-5633972.0
16	15	11	51	235	2.0	98565.0	21541.0	-5633028.0
16	15	11	51	235	3.0	86328.0	23861.0	-5632419.0
16	15	11	51	236	4.0	67849.0	26224.0	-5633436.0
16	15	11	51	236	5.0	48925.0	28544.0	-5633707.0
16	15	11	51	236	6.0	27718.0	31650.0	-5632844.0
16	15	11	51	236	8.0	-27879.0	37564.0	-5633534.0
16	15	11	51	237	9.0	-54367.0	40281.0	-5633717.0
16	15	11	51	237	10.0	-77579.0	41154.0	-5632882.0
16	15	11	51	237	11.0	-88452.0	43164.0	-5632582.0
16	15	11	51	238	12.0	-94872.0	46042.0	-5633792.0
16	15	11	51	238	13.0	-102729.0	49331.0	-5633550.0
16	15	11	51	238	14.0	-107920.0	51951.0	-5632712.0
16	15	11	51	238	15.0	-116224.0	54433.0	-5632933.0
16	15	11	51	239	16.0	-121615.0	57191.0	-5634239.0
16	15	11	51	239	17.0	-120302.0	61774.0	-5633696.0
16	15	11	51	239	18.0	-122248.0	64783.0	-5632841.0
16	15	11	51	239	19.0	-128320.0	66356.0	-5632499.0
16	15	11	51	240	20.0	-127208.0	67827.0	-5633972.0
16	15	11	51	240	21.0	-119591.0	69389.0	-5633747.0
16	15	11	51	240	22.0	-102666.0	70738.0	-5632948.0
16	15	11	51	241	23.0	-82444.0	71928.0	-5632548.0
16	15	11	51	241	24.0	-54261.0	72438.0	-5633886.0
16	15	11	51	241	25.0	-26511.0	72496.0	-5633589.0
16	15	11	51	242	26.0	2532.0	72894.0	-5632838.0
16	15	11	51	242	27.0	30507.0	73110.0	-5633263.0
16	15	11	51	242	28.0	51815.0	73196.0	-5634128.0
16	15	11	51	243	29.0	70639.0	72847.0	-5633375.0
16	15	11	51	244	31.0	80609.0	70659.0	-5633157.0
16	15	11	51	245	32.0	69161.0	67916.0	-5633823.0
16	15	11	51	245	33.0	58494.0	65667.0	-5633006.0
16	15	11	51	246	34.0	42268.0	63827.0	-5632292.0
16	15	11	51	246	35.0	26943.0	62216.0	-5632718.0
16	15	11	51	246	36.0	-15203.0	60468.0	-5633675.0
16	15	11	51	294	37.0	-131751.0	58516.0	-5632930.0
16	15	11	51	294	38.0	-320060.0	56743.0	-5632222.0
16	15	11	51	295	39.0	-427389.0	57085.0	-5632898.0
16	15	11	51	295	40.0	-233426.0	55949.0	-5633546.0
16	15	11	51	295	41.0	178846.0	53933.0	-5632781.0
16	15	11	51	296	42.0	432566.0	52007.0	-5632261.0
16	15	11	51	296	43.0	432515.0	49481.0	-5633438.0
16	15	11	51	296	44.0	355127.0	47011.0	-5633569.0
16	15	11	51	296	45.0	253138.0	44663.0	-5632704.0
16	15	11	51	297	46.0	115119.0	42726.0	-5632287.0
16	15	11	51	297	47.0	32942.0	40232.0	-5633594.0
16	15	11	51	297	48.0	-7325.0	37936.0	-5633503.0
16	15	11	51	298	49.0	-71759.0	35479.0	-5632665.0
16	15	11	51	298	50.0	-150388.0	32726.0	-5632089.0
16	15	11	51	298	51.0	-216546.0	29877.0	-5633260.0
16	15	11	51	298	53.0	-224312.0	25067.0	-5632559.0
16	15	11	51	298	54.0	-148184.0	21758.0	-5632051.0
16	15	11	51	299	55.0	-75065.0	17723.0	-5633433.0
16	15	11	51	299	56.0	-30004.0	14965.0	-5633443.0
16	15	11	51	299	57.0	8314.0	12603.0	-5632681.0
16	15	11	51	300	58.0	50375.0	10798.0	-5632204.0
16	15	11	51	300	59.0	71916.0	8498.0	-5633644.0
16	15	11	51	353	60.0	76609.0	6194.0	-5633529.0
16	15	11	51	354	61.0	63596.0	5166.0	-5632758.0
16	15	11	51	354	62.0	41449.0	4708.0	-5632425.0
16	15	11	51	354	63.0	17343.0	3041.0	-5633313.0
16	15	11	51	355	64.0	-1559.0	1438.0	-5632786.0
16	15	11	51	355	65.0	-10846.0	70.0	-5632149.0
16	15	11	51	355	66.0	-27277.0	-1899.0	-5633136.0
16	15	11	51	356	67.0	-42479.0	-4296.0	-5633546.0
16	15	11	51	356	68.0	-57002.0	-5709.0	-5632682.0
16	15	11	51	356	69.0	-58800.0	-7000.0	-5632003.0
16	15	11	51	356	70.0	-55384.0	-8677.0	-5632694.0
16	15	11	51	357	71.0	-43424.0	-10024.0	-5633362.0
16	15	11	51	357	72.0	-20832.0	-10993.0	-5632537.0
16	15	11	51	357	73.0	3304.0	-12739.0	-5631997.0
16	15	11	51	358	74.0	23140.0	-14237.0	-5633114.0
16	15	11	51	358	76.0	55153.0	-16639.0	-5632616.0
16	15	11	51	358	77.0	78000.0	-19484.0	-5632164.0
16	15	11	51	358	78.0	99831.0	-22148.0	-5633314.0
16	15	11	51	359	79.0	122024.0	-22992.0	-5633346.0
16	15	11	51	359	80.0	138833.0	-23872.0	-5632480.0
16	15	11	51	359	81.0	152013.0	-24889.0	-5631933.0
16	15	11	51	360	82.0	154310.0	-26411.0	-5633004.0
16	15	11	51	360	83.0	152701.0	-26603.0	-5633311.0
16	15	11	51	360	84.0	141099.0	-25301.0	-5632430.0
16	15	11	51	419	85.0	133102.0	-25430.0	-5631857.0
16	15	11	51	420	86.0	120231.0	-25800.0	-5632979.0
16	15	11	51	420	87.0	109606.0	-26016.0	-5633302.0
16	15	11	51	420	88.0	99300.0	-26742.0	-5632455.0
16	15	11	51	421	89.0	88901.0	-26907.0	-5631840.0
16	15	11	51	421	90.0	83546.0	-26804.0	-5633004.0
16	15	11	51	421	91.0	79731.0	-27807.0	-5633544.0
16	15	11	51	422	92.0	77866.0	-28531.0	-5632697.0
16	15	11	51	422	93.0	74117.0	-28677.0	-5632342.0
16	15	11	51	422	94.0	61091.0	-29280.0	-5633785.0
16	15	11	51	422	95.0	52362.0	-29963.0	-5633745.0
16	15	11	51	423	96.0	41801.0	-30004.0	-5632889.0
16	15	11	51	423	98.0	31403.0	-30090.0	-5633627.0
16	15	11	51	423	99.0	36394.0	-31463.0	-5633622.0
16	15	11	51	424	100.0	39511.0	-33406.0	-5632827.0
16	15	11	51	424	101.0	47508.0	-33986.0	-5632176.0
16	15	11	51	424	102.0	46544.0	-32653.0	-5633230.0
16	15	11	51	424	103.0	37621.0	-31595.0	-5633563.0
16	15	11	51	425	104.0	37928.0	-31463.0	-5632782.0
16	15	11	51	425	105.0	36136.0	-31417.0	-5632324.0
16	15	11	51	425	121.0	-54984.0	-26553.0	-5633629.0
16	15	11	51	426	122.0	-56036.0	-28257.0	-5633527.0
16	15	11	51	426	123.0	-53039.0	-28147.0	-5632644.0
16	15	11	51	426	124.0	-45681.0	-27586.0	-5632481.0
16	15	11	51	427	125.0	-35428.0	-27256.0	-5633802.0
16	15	11	51	427	126.0	-32052.0	-26511.0	-5633527.0
16	15	11	51	493	127.0	-33607.0	-25557.0	-5632630.0
16	15	11	51	493	128.0	-33639.0	-24604.0	-5632497.0
16	15	11	51	494	129.0	-30966.0	-22031.0	-5633831.0
16	15	11	51	494	130.0	-20472.0	-21796.0	-5633569.0
16	15	11	51	494	131.0	-6231.0	-20497.0	-5632674.0
16	15	11	51	495	132.0	5331.0	-19694.0	-5632299.0
16	15	11	51	495	133.0	16014.0	-18650.0	-5633684.0
16	15	11	51	495	134.0	28312.0	-17487.0	-5633611.0
16	15	11	51	496	135.0	37624.0	-16539.0	-5632767.0
16	15	11	51	496	136.0	43658.0	-15794.0	-5632351.0
16	15	11	51	496	137.0	48919.0	-14791.0	-5633714.0
16	15	11	51	497	138.0	59666.0	-13582.0	-5633614.0
16	15	11	51	497	139.0	66421.0	-12759.0	-5632798.0
16	15	11	51	497	140.0	61431.0	-12564.0	-5632534.0
16	15	11	51	498	141.0	59230.0	-11680.0	-5633709.0
16	15	11	51	498	143.0	77962.0	-10117.0	-5632522.0
16	15	11	51	498	144.0	76348.0	-10576.0	-5632699.0
16	15	11	51	499	145.0	69912.0	-12102.0	-5633700.0
16	15	11	51	499	146.0	55660.0	-11646.0	-5633002.0
16	15	11	51	499	147.0	44128.0	-10891.0	-5632187.0
16	15	11	51	499	148.0	37122.0	-10189.0	-5631934.0
16	15	11	51	500	149.0	27298.0	-9520.0	-5632762.0
16	15	11	51	500	150.0	18011.0	-8834.0	-5632216.0
16	15	11	51	500	151.0	6132.0	-7058.0	-5631752.0
16	15	11	51	501	152.0	3356.0	-4637.0	-5632789.0
16	15	11	51	501	153.0	-5678.0	-4171.0	-5632612.0
16	15	11	51	501	154.0	-20974.0	-3352.0	-5631777.0
16	15	11	51	502	155.0	-34824.0	-2539.0	-5632094.0
16	15	11	51	502	156.0	-48128.0	-2096.0	-5633202.0
16	15	11	51	503	157.0	-56896.0	-1666.0	-5632595.0
16	15	11	51	503	158.0	-58387.0	-1008.0	-5631766.0
16	15	11	51	503	159.0	-58106.0	-457.0	-5632184.0
16	15	11	51	504	160.0	-54913.0	-374.0	-5633079.0
16	15	11	51	504	161.0	-57508.0	-72.0	-5632446.0
16	15	11	51	505	162.0	-53576.0	-3.0	-5631587.0
16	15	11	51	505	163.0	-48844.0	288.0	-5631689.0
16	15	11	51	505	164.0	-41669.0	25.0	-5632633.0
16	15	11	51	506	166.0	-37167.0	909.0	-5631292.0
16	15	11	51	506	167.0	-28238.0	-1632.0	-5631933.0
16	15	11	51	507	168.0	-14406.0	-2492.0	-5632807.0
16	15	11	51	507	169.0	-4516.0	-2263.0	-5632169.0
16	15	11	51	507	170.0	4774.0	-2047.0	-5631421.0
16	15	11	51	508	171.0	15840.0	-2562.0	-5632479.0
16	15	11	51	571	172.0	22844.0	-2898.0	-5633029.0
16	15	11	51	572	173.0	24835.0	-2359.0	-5632292.0
16	15	11	51	572	174.0	20824.0	-416.0	-5631628.0
16	15	11	51	572	175.0	12573.0	636.0	-5632591.0
16	15	11	51	572	176.0	2155.0	671.0	-5632578.0
16	15	11	51	573	177.0	3099.0	615.0	-5631837.0
16	15	11	51	573	178.0	23230.0	1155.0	-5632208.0
16	15	11	51	573	179.0	60253.0	1171.0	-5633386.0
16	15	11	51	574	180.0	107569.0	1483.0	-5632644.0
16	15	11	51	574	181.0	152353.0	1447.0	-5631874.0
16	15	11	51	574	182.0	195091.0	1820.0	-5631961.0
16	15	11	51	575	183.0	232858.0	1816.0	-5633192.0
16	15	11	51	575	184.0	242854.0	1896.0	-5632566.0
16	15	11	51	575	185.0	230713.0	1791.0	-5631772.0
16	15	11	51	575	186.0	204605.0	1306.0	-5632101.0
16	15	11	51	576	188.0	142134.0	1558.0	-5632664.0
16	15	11	51	576	189.0	60616.0	124.0	-5631913.0
16	15	11	51	576	190.0	-290067.0	-2019.0	-5632371.0
16	15	11	51	577	191.0	-825033.0	-2462.0	-5633224.0
16	15	11	51	577	192.0	-1175598.0	-2556.0	-5632480.0
16	15	11	51	577	193.0	-1222428.0	-2544.0	-5631739.0
16	15	11	51	578	194.0	-949647.0	-2932.0	-5632602.0
16	15	11	51	578	195.0	-525984.0	-3061.0	-5633260.0
16	15	11	51	578	196.0	-170989.0	-2218.0	-5632556.0
16	15	11	51	637	197.0	-8371.0	-49.0	-5631754.0
16	15	11	51	637	198.0	-21967.0	489.0	-5632363.0
16	15	11	51	637	199.0	-16779.0	725.0	-5633287.0
16	15	11	51	638	200.0	83933.0	578.0	-5632617.0
16	15	11	51	638	201.0	168536.0	798.0	-5631821.0
16	15	11	51	638	202.0	154943.0	686.0	-5632599.0
16	15	11	51	638	203.0	38264.0	956.0	-5633160.0
16	15	11	51	639	204.0	-57357.0	756.0	-5632428.0
16	15	11	51	639	205.0	-17832.0	626.0	-5631857.0
16	15	11	51	639	206.0	109184.0	963.0	-5633050.0
16	15	11	51	640	207.0	257565.0	1129.0	-5632935.0
16	15	11	51	640	208.0	395670.0	1391.0	-5632184.0
16	15	11	51	640	209.0	447929.0	1018.0	-5631830.0
16	15	11	51	641	211.0	403926.0	480.0	-5632994.0
16	15	11	51	641	212.0	377568.0	-2034.0	-5632231.0
16	15	11	51	641	213.0	316844.0	-2539.0	-5631555.0
16	15	11	51	641	214.0	242786.0	-3011.0	-5632299.0
16	15	11	51	642	215.0	178610.0	-3531.0	-5632182.0
16	15	11	51	642	216.0	132226.0	-3389.0	-5631541.0
16	15	11	51	642	217.0	89100.0	-3016.0	-5632401.0
16	15	11	51	643	218.0	48175.0	-2209.0	-5633002.0
16	15	11	51	643	219.0	6140.0	-90.0	-5632158.0
16	15	11	51	643	220.0	-30996.0	535.0	-5631583.0
16	15	11	51	643	221.0	-77444.0	167.0	-5632611.0
16	15	11	51	644	222.0	-133327.0	111.0	-5632904.0
16	15	11	51	644	223.0	-180099.0	178.0	-5632010.0
16	15	11	51	644	224.0	-205396.0	561.0	-5631501.0
16	15	11	51	645	225.0	-226110.0	622.0	-5632777.0
16	15	11	51	645	226.0	-239876.0	234.0	-5633042.0
16	15	11	51	645	227.0	-247136.0	614.0	-5632143.0
16	15	11	51	646	228.0	-261387.0	520.0	-5631456.0
16	15	11	51	646	229.0	-269272.0	218.0	-5632206.0
16	15	11	51	646	230.0	-262291.0	370.0	-5632891.0
16	15	11	51	647	231.0	-255801.0	1256.0	-5632087.0
16	15	11	51	647	233.0	-247337.0	1023.0	-5632214.0
16	15	11	51	647	234.0	-237570.0	-322.0	-5632724.0
16	15	11	51	648	235.0	-214584.0	-1608.0	-5631919.0
16	15	11	51	648	236.0	-175379.0	-1592.0	-5631327.0
16	15	11	51	648	237.0	-135924.0	-1507.0	-5632361.0
16	15	11	51	649	238.0	-91912.0	-1372.0	-5632431.0
16	15	11	51	705	239.0	-47528.0	-1007.0	-5631652.0
16	15	11	51	705	240.0	-11920.0	-989.0	-5631130.0
16	15	11	51	706	241.0	21885.0	960.0	-5632304.0
16	15	11	51	706	242.0	43708.0	2655.0	-5632220.0
16	15	11	51	706	243.0	61164.0	3018.0	-5631428.0
16	15	11	51	706	244.0	87358.0	3037.0	-5631097.0
16	15	11	51	707	245.0	110940.0	3178.0	-5632666.0
16	15	11	51	707	246.0	132693.0	3369.0	-5632429.0
16	15	11	51	707	247.0	151474.0	3719.0	-5631682.0
16	15	11	51	708	248.0	155611.0	3680.0	-5631057.0
16	15	11	51	708	249.0	148709.0	3652.0	-5632300.0
16	15	11	51	708	250.0	146076.0	3768.0	-5632351.0
16	15	11	51	709	251.0	133778.0	3628.0	-5631598.0
16	15	11	51	709	252.0	121773.0	3396.0	-5631174.0
16	15	11	51	709	253.0	118154.0	3706.0	-5631957.0
16	15	11	51	709	0.0	109879.0	4374.0	-5632513.0
16	15	11	51	710	1.0	103901.0	2405.0	-5632230.0
16	15	11	51	710	2.0	101830.0	2179.0	-5631356.0
16	15	11	51	710	3.0	101994.0	2518.0	-5631083.0
16	15	11	51	711	4.0	100288.0	2514.0	-5632408.0
16	15	11	51	711	5.0	102873.0	2774.0	-5632252.0
16	15	11	51	775	6.0	104441.0	3165.0	-5631371.0
16	15	11	51	775	7.0	103961.0	4719.0	-5631097.0
16	15	11	51	776	8.0	104115.0	6912.0	-5632320.0
16	15	11	51	776	9.0	99404.0	7703.0	-5632134.0
16	15	11	51	776	10.0	96234.0	8567.0	-5631271.0
16	15	11	51	777	11.0	97029.0	9653.0	-5631474.0
16	15	11	51	777	12.0	99818.0	10384.0	-5632622.0
16	15	11	51	777	13.0	105326.0	11826.0	-5632117.0
16	15	11	51	777	14.0	116696.0	12876.0	-5631239.0
16	15	11	51	778	15.0	124414.0	13795.0	-5631386.0
16	15	11	51	778	16.0	127652.0	14701.0	-5632565.0
16	15	11	51	778	17.0	130469.0	16469.0	-5632029.0
16	15	11	51	779	18.0	135503.0	17864.0	-5631171.0
16	15	11	51	779	19.0	134609.0	18801.0	-5631147.0
16	15	11	51	779	20.0	125205.0	20703.0	-5632365.0
16	15	11	51	779	22.0	111238.0	25196.0	-5631056.0
16	15	11	51	780	23.0	82476.0	25490.0	-5630796.0
16	15	11	51	780	24.0	46099.0	25996.0	-5632039.0
16	15	11	51	780	25.0	24726.0	28079.0	-5631667.0
16	15	11	51	781	26.0	9734.0	30236.0	-5630874.0
16	15	11	51	781	27.0	-13427.0	32661.0	-5631019.0
16	15	11	51	781	28.0	-36481.0	35000.0	-5631728.0
16	15	11	51	782	29.0	-63026.0	37610.0	-5631074.0
16	15	11	51	782	30.0	-90196.0	42332.0	-5630731.0
16	15	11	51	782	31.0	-110355.0	46605.0	-5632046.0
16	15	11	51	782	32.0	-114212.0	49471.0	-5631786.0
16	15	11	51	783	33.0	-107909.0	52536.0	-5630962.0
16	15	11	51	783	34.0	-108360.0	55218.0	-5630774.0
16	15	11	51	783	35.0	-110234.0	56665.0	-5632210.0
16	15	11	51	784	36.0	-109759.0	58952.0	-5631942.0
16	15	11	51	784	37.0	-111037.0	61076.0	-5631055.0
16	15	11	51	784	38.0	-113499.0	63228.0	-5630782.0
16	15	11	51	784	39.0	-98962.0	65132.0	-5632116.0
16	15	11	51	785	40.0	-69105.0	66283.0	-5631959.0
16	15	11	51	785	41.0	-32737.0	67084.0	-5631092.0
16	15	11	51	785	42.0	-4977.0	67961.0	-5630847.0
16	15	11	51	843	44.0	34147.0	68938.0	-5631949.0
16	15	11	51	844	45.0	48397.0	68469.0	-5631078.0
16	15	11	51	844	46.0	61900.0	65681.0	-5630969.0
16	15	11	51	844	47.0	66181.0	64255.0	-5632429.0
16	15	11	51	845	48.0	55385.0	63232.0	-5632200.0
16	15	11	51	845	49.0	33462.0	62522.0	-5631312.0
16	15	11	51	845	50.0	-893.0	62556.0	-5631051.0
16	15	11	51	846	51.0	-30681.0	63955.0	-5632333.0
16	15	11	51	846	52.0	-68411.0	62938.0	-5632174.0
16	15	11	51	846	53.0	-170605.0	62157.0	-5631276.0
16	15	11	51	847	54.0	-395121.0	60947.0	-5630736.0
16	15	11	51	847	55.0	-549385.0	59489.0	-5631726.0
16	15	11	51	847	56.0	-379381.0	57967.0	-5631836.0
16	15	11	51	848	57.0	29604.0	56201.0	-5631001.0
16	15	11	51	848	58.0	347301.0	54163.0	-5630654.0
16	15	11	51	848	67.0	-76264.0	34607.0	-5632729.0
16	15	11	51	848	68.0	-130113.0	30295.0	-5632171.0
16	15	11	51	849	69.0	-183033.0	26450.0	-5631383.0
16	15	11	51	849	70.0	-220141.0	24098.0	-5631056.0
16	15	11	51	849	71.0	-222762.0	21450.0	-5632563.0
16	15	11	51	849	72.0	-179217.0	19104.0	-5632348.0
16	15	11	51	850	73.0	-103303.0	17064.0	-5631570.0
16	15	11	51	850	74.0	-30092.0	15222.0	-5631598.0
16	15	11	51	850	75.0	12248.0	14694.0	-5633036.0
16	15	11	51	850	76.0	38294.0	13425.0	-5632567.0
16	15	11	51	851	77.0	51631.0	11454.0	-5631790.0
16	15	11	51	905	78.0	38601.0	9658.0	-5631743.0
16	15	11	51	906	79.0	6598.0	7845.0	-5632376.0
16	15	11	51	906	80.0	-29091.0	5616.0	-5631716.0
16	15	11	51	906	81.0	-58069.0	3856.0	-5631641.0
16	15	11	51	907	82.0	-83886.0	1882.0	-5633064.0
16	15	11	51	907	83.0	-110338.0	331.0	-5632662.0
16	15	11	51	907	84.0	-137210.0	-1077.0	-5631784.0
16	15	11	51	908	85.0	-152669.0	-2930.0	-5631461.0
16	15	11	51	908	86.0	-155439.0	-4524.0	-5632956.0
16	15	11	51	908	87.0	-144355.0	-5888.0	-5632954.0
16	15	11	51	908	89.0	-87504.0	-9156.0	-5631548.0
16	15	11	51	909	90.0	-46363.0	-11259.0	-5632652.0
16	15	11	51	909	91.0	-252.0	-14835.0	-5632841.0
16	15	11	51	909	92.0	49783.0	-16573.0	-5632007.0
16	15	11	51	910	93.0	96326.0	-17814.0	-5631753.0
16	15	11	51	910	94.0	140828.0	-19176.0	-5633192.0
16	15	11	51	910	95.0	179609.0	-19932.0	-5633030.0
16	15	11	51	910	96.0	212709.0	-20774.0	-5632142.0
16	15	11	51	973	97.0	243253.0	-21807.0	-5632011.0
16	15	11	52	39	98.0	264045.0	-20581.0	-5633434.0
16	15	11	52	39	99.0	272714.0	-20309.0	-5633194.0
16	15	11	52	40	100.0	270574.0	-20881.0	-5632300.0
16	15	11	52	40	101.0	263837.0	-21719.0	-5631764.0
16	15	11	52	40	102.0	251225.0	-22510.0	-5632729.0
16	15	11	52	41	103.0	238294.0	-23354.0	-5632804.0
16	15	11	52	41	104.0	227642.0	-23911.0	-5631928.0
16	15	11	52	41	105.0	213466.0	-23852.0	-5631725.0
16	15	11	52	42	106.0	202905.0	-24699.0	-5632944.0
16	15	11	52	42	107.0	200528.0	-25886.0	-5632646.0
16	15	11	52	42	108.0	203442.0	-26838.0	-5631766.0
16	15	11	52	42	109.0	198705.0	-27639.0	-5631961.0
16	15	11	52	43	110.0	185698.0	-27535.0	-5633165.0
16	15	11	52	43	112.0	156381.0	-27722.0	-5631853.0
16	15	11	52	43	134.0	31394.0	-25899.0	-5632937.0
16	15	11	52	44	157.0	20061.0	-11715.0	-5632691.0
16	15	11	52	44	158.0	10811.0	-12874.0	-5631961.0
16	15	11	52	44	159.0	9737.0	-13557.0	-5632356.0
16	15	11	52	44	160.0	11691.0	-13399.0	-5633257.0
16	15	11	52	45	161.0	11519.0	-12332.0	-5632518.0
16	15	11	52	45	162.0	9011.0	-11373.0	-5631774.0
16	15	11	52	45	163.0	-1183.0	-10926.0	-5631942.0
16	15	11	52	45	164.0	-18534.0	-9967.0	-5633059.0
16	15	11	52	46	165.0	-38089.0	-7476.0	-5632383.0
16	15	11	52	46	166.0	-52857.0	-6400.0	-5631603.0
16	15	11	52	46	167.0	-65177.0	-5718.0	-5632134.0
16	15	11	52	46	168.0	-79233.0	-5077.0	-5633071.0
16	15	11	52	47	169.0	-105124.0	-4762.0	-5632361.0
16	15	11	52	47	170.0	-143438.0	-4239.0	-5631641.0
16	15	11	52	47	171.0	-177384.0	-3029.0	-5632705.0
16	15	11	52	47	172.0	-197424.0	-2016.0	-5633363.0
16	15	11	52	48	173.0	-212796.0	-2249.0	-5632569.0
16	15	11	52	48	174.0	-223398.0	-1761.0	-5631902.0
16	15	11	52	48	175.0	-235314.0	-1395.0	-5632972.0
16	15	11	52	49	176.0	-239271.0	-1292.0	-5633389.0
16	15	11	52	49	177.0	-231657.0	-629.0	-5632607.0
16	15	11	52	49	179.0	-180621.0	-94.0	-5632505.0
16	15	11	52	49	180.0	-158652.0	-806.0	-5633016.0
16	15	11	52	50	181.0	-146259.0	-2584.0	-5632309.0
16	15	11	52	50	182.0	-132943.0	-2861.0	-5631491.0
16	15	11	52	50	183.0	-112962.0	-2540.0	-5632307.0
16	15	11	52	106	184.0	-83776.0	-2615.0	-5633137.0
16	15	11	52	107	185.0	-51417.0	-2725.0	-5632458.0
16	15	11	52	107	186.0	-22031.0	-2632.0	-5631862.0
16	15	11	52	107	187.0	-5906.0	-1188.0	-5632754.0
16	15	11	52	108	188.0	7327.0	898.0	-5632501.0
16	15	11	52	175	189.0	17783.0	1163.0	-5631860.0
16	15	11	52	175	190.0	28332.0	1416.0	-5632776.0
16	15	11	52	175	191.0	37499.0	1674.0	-5633347.0
16	15	11	52	176	192.0	33201.0	1670.0	-5632499.0
16	15	11	52	176	193.0	19273.0	1905.0	-5631879.0
16	15	11	52	177	194.0	5926.0	2119.0	-5632732.0
16	15	11	52	177	195.0	-587.0	2508.0	-5633090.0
16	15	11	52	177	196.0	8790.0	2693.0	-5632184.0
16	15	11	52	178	197.0	41744.0	2511.0	-5631626.0
16	15	11	52	178	198.0	94105.0	1920.0	-5632625.0
16	15	11	52	179	199.0	151913.0	1950.0	-5632941.0
16	15	11	52	179	200.0	206276.0	2393.0	-5632105.0
16	15	11	52	179	202.0	295993.0	2513.0	-5632616.0
16	15	11	52	180	203.0	327107.0	750.0	-5632920.0
16	15	11	52	180	204.0	334616.0	1763.0	-5632053.0
16	15	11	52	180	224.0	-94113.0	2818.0	-5632471.0
16	15	11	52	181	225.0	45849.0	1548.0	-5632553.0
16	15	11	52	181	226.0	225677.0	-66.0	-5633759.0
16	15	11	52	181	227.0	381732.0	-594.0	-5633133.0
16	15	11	52	182	228.0	473306.0	-1036.0	-5632377.0
16	15	11	52	182	229.0	476894.0	-871.0	-5632005.0
16	15	11	52	182	230.0	430078.0	-929.0	-5633096.0
16	15	11	52	183	231.0	370433.0	-889.0	-5632706.0
16	15	11	52	183	232.0	297410.0	213.0	-5632110.0
16	15	11	52	183	233.0	188995.0	2309.0	-5633129.0
16	15	11	52	183	234.0	83853.0	2381.0	-5633579.0
16	15	11	52	184	235.0	25808.0	2744.0	-5632744.0
16	15	11	52	184	236.0	-12924.0	3016.0	-5632206.0
16	15	11	52	184	237.0	-40218.0	2986.0	-5633249.0
16	15	11	52	185	238.0	-69804.0	3274.0	-5633389.0
16	15	11	52	185	239.0	-118776.0	3159.0	-5632513.0
16	15	11	52	185	240.0	-190143.0	3049.0	-5632201.0
16	15	11	52	186	241.0	-265251.0	2973.0	-5633346.0
16	15	11	52	186	242.0	-336688.0	3294.0	-5633123.0
16	15	11	52	187	243.0	-390229.0	3542.0	-5632194.0
16	15	11	52	242	244.0	-418994.0	3324.0	-5631759.0
16	15	11	52	243	245.0	-434600.0	3176.0	-5633034.0
16	15	11	52	243	247.0	-437947.0	2891.0	-5632262.0
16	15	11	52	243	248.0	-427036.0	908.0	-5631801.0
16	15	11	52	244	249.0	-400587.0	108.0	-5632938.0
16	15	11	52	244	250.0	-359349.0	7.0	-5632889.0
16	15	11	52	244	251.0	-317025.0	-138.0	-5632059.0
16	15	11	52	245	252.0	-284478.0	202.0	-5631929.0
16	15	11	52	245	253.0	-254480.0	583.0	-5633039.0
16	15	11	52	245	254.0	-228631.0	1221.0	-5632611.0
16	15	11	52	245	255.0	-197881.0	3076.0	-5631764.0
16	15	11	52	246	0.0	-161828.0	3450.0	-5631787.0
16	15	11	52	246	1.0	-121023.0	3446.0	-5633097.0
16	15	11	52	246	2.0	-72240.0	3638.0	-5632600.0
16	15	11	52	247	3.0	-20023.0	4093.0	-5631772.0
16	15	11	52	247	4.0	25679.0	4391.0	-5631929.0
16	15	11	52	247	5.0	64308.0	4176.0	-5633316.0
16	15	11	52	248	6.0	83723.0	4570.0	-5632740.0
16	15	11	52	248	7.0	90935.0	4398.0	-5631961.0
16	15	11	52	248	8.0	98988.0	4396.0	-5631911.0
16	15	11	52	249	9.0	104134.0	4781.0	-5633227.0
16	15	11	52	249	10.0	116529.0	4926.0	-5632686.0
16	15	11	52	249	11.0	125172.0	5024.0	-5631964.0
16	15	11	52	249	13.0	150228.0	4548.0	-5633339.0
16	15	11	52	250	14.0	147335.0	3663.0	-5632551.0
16	15	11	52	250	15.0	134316.0	2174.0	-5631809.0
16	15	11	52	250	16.0	118479.0	1973.0	-5632359.0
16	15	11	52	251	17.0	111553.0	1609.0	-5633397.0
16	15	11	52	251	18.0	111178.0	1504.0	-5632600.0
16	15	11	52	252	19.0	106020.0	1026.0	-5631827.0
16	15	11	52	317	20.0	89179.0	1126.0	-5632073.0
16	15	11	52	318	21.0	77619.0	2589.0	-5633366.0
16	15	11	52	318	22.0	72466.0	4625.0	-5632704.0
16	15	11	52	318	23.0	67313.0	5751.0	-5631953.0
16	15	11	52	319	24.0	65204.0	5918.0	-5632411.0
16	15	11	52	319	25.0	69119.0	6269.0	-5633337.0
16	15	11	52	319	26.0	66242.0	6892.0	-5632606.0
16	15	11	52	320	27.0	67352.0	7291.0	-5631901.0
16	15	11	52	320	28.0	68129.0	7764.0	-5632695.0
16	15	11	52	320	29.0	81129.0	8266.0	-5633421.0
16	15	11	52	320	30.0	99848.0	9074.0	-5632633.0
16	15	11	52	321	31.0	123620.0	10158.0	-5632026.0
16	15	11	52	321	32.0	150384.0	11150.0	-5632991.0
16	15	11	52	322	33.0	168611.0	11844.0	-5633210.0
16	15	11	52	322	34.0	175447.0	12774.0	-5632367.0
16	15	11	52	322	36.0	172414.0	15161.0	-5632458.0
16	15	11	52	322	37.0	167233.0	13617.0	-5632879.0
16	15	11	52	323	38.0	167200.0	14408.0	-5632093.0
16	15	11	52	323	39.0	155606.0	15815.0	-5631430.0
16	15	11	52	323	40.0	152725.0	17319.0	-5632668.0
16	15	11	52	324	41.0	135864.0	19183.0	-5633153.0
16	15	11	52	324	42.0	108266.0	20729.0	-5632389.0
16	15	11	52	324	43.0	98926.0	22944.0	-5631759.0
16	15	11	52	324	44.0	78944.0	26991.0	-5633051.0
16	15	11	52	325	45.0	63421.0	29519.0	-5633370.0
16	15	11	52	325	46.0	56468.0	31503.0	-5632595.0
16	15	11	52	325	47.0	50315.0	33224.0	-5631984.0
16	15	11	52	325	48.0	47582.0	35103.0	-5633266.0
16	15	11	52	326	49.0	40722.0	37514.0	-5633394.0
16	15	11	52	392	50.0	31896.0	39606.0	-5632623.0
16	15	11	52	393	51.0	28804.0	42091.0	-5631905.0
16	15	11	52	393	52.0	34706.0	44620.0	-5633139.0
16	15	11	52	475	53.0	44674.0	46852.0	-5633429.0
16	15	11	52	476	54.0	52603.0	48909.0	-5632706.0
16	15	11	52	476	55.0	55534.0	50599.0	-5631960.0
16	15	11	52	476	58.0	85087.0	56386.0	-5632788.0
16	15	11	52	477	59.0	106443.0	56227.0	-5632247.0
16	15	11	52	477	60.0	121658.0	55653.0	-5633131.0
16	15	11	52	478	61.0	145338.0	56166.0	-5632812.0
16	15	11	52	478	62.0	180154.0	57711.0	-5632250.0
16	15	11	52	478	63.0	198014.0	60567.0	-5633392.0
16	15	11	52	479	64.0	195441.0	61171.0	-5633778.0
16	15	11	52	479	65.0	189784.0	61556.0	-5632927.0
16	15	11	52	479	66.0	166013.0	60976.0	-5632264.0
16	15	11	52	479	67.0	110562.0	61061.0	-5633127.0
16	15	11	52	480	81.0	179779.0	42756.0	-5633440.0
16	15	11	52	480	103.0	-23907.0	-2788.0	-5633190.0
16	15	11	52	480	125.0	177786.0	-25355.0	-5632329.0
16	15	11	52	480	126.0	143362.0	-26549.0	-5633615.0
16	15	11	52	481	127.0	103984.0	-28914.0	-5633631.0
16	15	11	52	481	128.0	67492.0	-29893.0	-5632791.0
16	15	11	52	481	129.0	29145.0	-29888.0	-5632227.0
16	15	11	52	482	130.0	779.0	-30457.0	-5633531.0
16	15	11	52	482	131.0	-18380.0	-30792.0	-5633680.0
16	15	11	52	560	132.0	-33501.0	-30878.0	-5632886.0
16	15	11	52	560	133.0	-41380.0	-30366.0	-5632226.0
16	15	11	52	560	134.0	-45917.0	-28622.0	-5633392.0
16	15	11	52	561	135.0	-46311.0	-28584.0	-5633671.0
16	15	11	52	561	136.0	-42319.0	-28488.0	-5632921.0
16	15	11	52	561	137.0	-31079.0	-28170.0	-5632314.0
16	15	11	52	562	138.0	-19726.0	-28556.0	-5633558.0
16	15	11	52	562	139.0	-18334.0	-28781.0	-5633653.0
16	15	11	52	562	140.0	-15396.0	-28936.0	-5632864.0
16	15	11	52	562	141.0	-19396.0	-29025.0	-5632652.0
16	15	11	52	563	142.0	-28850.0	-28757.0	-5633577.0
16	15	11	52	563	143.0	-45533.0	-28822.0	-5633024.0
16	15	11	52	563	144.0	-53947.0	-28637.0	-5632505.0
16	15	11	52	564	145.0	-42466.0	-27965.0	-5633787.0
16	15	11	52	564	146.0	-26573.0	-27371.0	-5633981.0
16	15	11	52	564	148.0	-27442.0	-26630.0	-5632432.0
16	15	11	52	564	149.0	-31571.0	-28137.0	-5633316.0
16	15	11	52	565	150.0	-46326.0	-29321.0	-5633907.0
16	15	11	52	565	151.0	-62192.0	-28516.0	-5633077.0
16	15	11	52	565	152.0	-68387.0	-27734.0	-5632526.0
16	15	11	52	566	153.0	-71793.0	-25842.0	-5633696.0
16	15	11	52	566	154.0	-67404.0	-24412.0	-5634099.0
16	15	11	52	566	155.0	-51928.0	-23465.0	-5633244.0
16	15	11	52	566	156.0	-39137.0	-22887.0	-5632877.0
16	15	11	52	567	157.0	-38986.0	-21824.0	-5634094.0
16	15	11	52	567	170.0	48637.0	-13581.0	-5633688.0
16	15	11	52	567	171.0	101874.0	-13636.0	-5632884.0
16	15	11	52	567	172.0	37890.0	-14534.0	-5632902.0
16	15	11	52	568	173.0	-40672.0	-14553.0	-5634007.0
16	15	11	52	568	174.0	-74401.0	-13959.0	-5633499.0
16	15	11	52	568	175.0	-61557.0	-12999.0	-5632657.0
16	15	11	52	569	176.0	-19489.0	-12121.0	-5632987.0
16	15	11	52	569	177.0	8348.0	-11383.0	-5634196.0
16	15	11	52	569	178.0	2549.0	-10367.0	-5633595.0
16	15	11	52	569	179.0	-26735.0	-7716.0	-5632759.0
16	15	11	52	570	180.0	-61189.0	-6534.0	-5632697.0
16	15	11	52	648	181.0	-92902.0	-5747.0	-5633341.0
16	15	11	52	649	182.0	-110017.0	-4989.0	-5632669.0
16	15	11	52	649	183.0	-117006.0	-4193.0	-5632369.0
16	15	11	52	649	184.0	-115254.0	-3522.0	-5633709.0
16	15	11	52	650	185.0	-109874.0	-3419.0	-5633494.0
16	15	11	52	650	186.0	-117201.0	-2274.0	-5632671.0
16	15	11	52	650	187.0	-126971.0	-1111.0	-5632665.0
16	15	11	52	650	188.0	-133705.0	-1203.0	-5633813.0
16	15	11	52	651	189.0	-136074.0	-1019.0	-5633307.0
16	15	11	52	651	190.0	-133304.0	-344.0	-5632479.0
16	15	11	52	651	191.0	-123384.0	-59.0	-5632613.0
16	15	11	52	652	193.0	-98850.0	743.0	-5633202.0
16	15	11	52	652	194.0	-85396.0	-659.0	-5632377.0
16	15	11	52	652	195.0	-63609.0	-1552.0	-5632280.0
16	15	11	52	653	196.0	-48805.0	-1487.0	-5633543.0
16	15	11	52	653	197.0	-32045.0	-1547.0	-5633156.0
16	15	11	52	653	198.0	-13538.0	-1216.0	-5632255.0
16	15	11	52	653	199.0	-7032.0	-979.0	-5632451.0
16	15	11	52	654	200.0	-2465.0	-451.0	-5633576.0
16	15	11	52	654	201.0	7826.0	1366.0	-5633051.0
16	15	11	52	654	202.0	11469.0	2458.0	-5632203.0
16	15	11	52	655	203.0	-2764.0	2586.0	-5632740.0
16	15	11	52	655	204.0	-20776.0	2973.0	-5633821.0
16	15	11	52	655	205.0	-25961.0	3585.0	-5633207.0
16	15	11	52	655	206.0	-24830.0	3699.0	-5632336.0
16	15	11	52	656	207.0	-11124.0	3219.0	-5632839.0
16	15	11	52	656	208.0	28134.0	3256.0	-5633891.0
16	15	11	52	656	209.0	88618.0	3472.0	-5633321.0
16	15	11	52	657	210.0	153241.0	2951.0	-5632445.0
16	15	11	52	657	211.0	217718.0	2844.0	-5632662.0
16	15	11	52	657	212.0	281360.0	3198.0	-5633914.0
16	15	11	52	658	213.0	337773.0	3077.0	-5633451.0
16	15	11	52	658	215.0	395704.0	2909.0	-5632709.0
16	15	11	52	658	216.0	393854.0	2707.0	-5634066.0
16	15	11	52	659	217.0	384408.0	54.0	-5633632.0
16	15	11	52	659	218.0	370137.0	-736.0	-5632808.0
16	15	11	52	660	219.0	319368.0	-782.0	-5633111.0
16	15	11	52	660	220.0	106488.0	-759.0	-5634131.0
16	15	11	52	661	221.0	-276312.0	-514.0	-5633531.0
16	15	11	52	738	222.0	-641437.0	-896.0	-5632644.0
16	15	11	52	738	223.0	-835756.0	18.0	-5633045.0
16	15	11	52	738	224.0	-822500.0	1895.0	-5633986.0
16	15	11	52	739	225.0	-679790.0	2266.0	-5633387.0
16	15	11	52	739	226.0	-498349.0	1843.0	-5632564.0
16	15	11	52	739	227.0	-358930.0	1823.0	-5632866.0
16	15	11	52	740	228.0	-258101.0	2181.0	-5633990.0
16	15	11	52	740	229.0	-145156.0	1923.0	-5633382.0
16	15	11	52	740	230.0	-80796.0	1972.0	-5632595.0
16	15	11	52	741	231.0	-43201.0	1671.0	-5632867.0
16	15	11	52	741	232.0	92346.0	1496.0	-5633266.0
16	15	11	52	741	233.0	218237.0	1745.0	-5632564.0
16	15	11	52	742	234.0	238274.0	2100.0	-5632611.0
16	15	11	52	742	235.0	215201.0	2065.0	-5634081.0
16	15	11	52	742	236.0	197515.0	1574.0	-5633542.0
16	15	11	52	743	238.0	373016.0	1361.0	-5633088.0
16	15	11	52	743	239.0	506816.0	-748.0	-5634326.0
16	15	11	52	743	240.0	564459.0	-2326.0	-5633694.0
16	15	11	52	744	241.0	534811.0	-2398.0	-5632915.0
16	15	11	52	744	242.0	410962.0	-2470.0	-5633278.0
16	15	11	52	744	243.0	238669.0	-2767.0	-5634238.0
16	15	11	52	744	244.0	96301.0	-2814.0	-5633566.0
16	15	11	52	745	245.0	23929.0	-2710.0	-5632749.0
16	15	11	52	745	246.0	-9239.0	-247.0	-5632811.0
16	15	11	52	745	247.0	-31127.0	368.0	-5634096.0
16	15	11	52	746	248.0	-60922.0	241.0	-5633632.0
16	15	11	52	746	249.0	-104079.0	757.0	-5632773.0
16	15	11	52	746	250.0	-168051.0	806.0	-5632931.0
16	15	11	52	747	251.0	-254445.0	744.0	-5634110.0
16	15	11	52	747	252.0	-351566.0	877.0	-5633576.0
16	15	11	52	747	253.0	-443701.0	678.0	-5632818.0
16	15	11	52	747	254.0	-517960.0	466.0	-5633831.0
16	15	11	52	748	255.0	-548065.0	1143.0	-5634384.0
16	15	11	52	748	0.0	-537065.0	1364.0	-5633652.0
16	15	11	52	748	1.0	-505149.0	1224.0	-5632902.0
16	15	11	52	749	2.0	-468917.0	914.0	-5633966.0
16	15	11	52	749	4.0	-395496.0	1379.0	-5633763.0
16	15	11	52	750	5.0	-373094.0	314.0	-5632932.0
16	15	11	52	750	6.0	-368074.0	-1241.0	-5633846.0
16	15	11	52	750	7.0	-364904.0	-1419.0	-5634532.0
16	15	11	52	751	8.0	-336914.0	-1597.0	-5633812.0
16	15	11	52	751	9.0	-295982.0	-1354.0	-5632966.0
16	15	11	52	751	10.0	-257534.0	-1007.0	-5633597.0
16	15	11	52	752	11.0	-217730.0	-1301.0	-5634568.0
16	15	11	52	828	12.0	-165889.0	-191.0	-5633909.0
16	15	11	52	829	13.0	-113674.0	1894.0	-5633191.0
16	15	11	52	829	14.0	-67807.0	2217.0	-5633974.0
16	15	11	52	829	15.0	-25556.0	1836.0	-5634179.0
16	15	11	52	830	16.0	4151.0	2004.0	-5633479.0
16	15	11	52	830	17.0	40084.0	2633.0	-5634075.0
16	15	11	52	830	18.0	80851.0	2456.0	-5635184.0
16	15	11	52	831	19.0	110492.0	2928.0	-5634404.0
16	15	11	52	831	20.0	130118.0	3065.0	-5633606.0
16	15	11	52	832	21.0	148671.0	2643.0	-5633724.0
16	15	11	52	832	22.0	145999.0	2461.0	-5634970.0
16	15	11	52	832	23.0	143435.0	2456.0	-5634359.0
16	15	11	52	833	24.0	148646.0	2749.0	-5633582.0
16	15	11	52	833	25.0	150146.0	2534.0	-5633766.0
16	15	11	52	833	27.0	144042.0	2165.0	-5634639.0
16	15	11	52	834	34.0	163084.0	1792.0	-5635674.0
16	15	11	52	834	35.0	169642.0	1019.0	-5635005.0
16	15	11	52	834	36.0	178769.0	-754.0	-5634165.0
16	15	11	52	834	37.0	180956.0	-728.0	-5634365.0
16	15	11	52	835	38.0	179621.0	-689.0	-5635585.0
16	15	11	52	835	39.0	183584.0	-60.0	-5635072.0
16	15	11	52	835	40.0	189021.0	379.0	-5634219.0
16	15	11	52	836	41.0	198421.0	1264.0	-5634420.0
16	15	11	52	836	42.0	196763.0	3686.0	-5635562.0
16	15	11	52	836	43.0	194841.0	2786.0	-5635062.0
16	15	11	52	837	44.0	190792.0	3564.0	-5634305.0
16	15	11	52	837	45.0	178342.0	6328.0	-5635326.0
16	15	11	52	837	46.0	160782.0	7688.0	-5635839.0
16	15	11	52	838	47.0	137352.0	8738.0	-5635106.0
16	15	11	52	838	48.0	114622.0	9551.0	-5634326.0
16	15	11	52	838	49.0	99888.0	10943.0	-5635329.0
16	15	11	52	839	50.0	80562.0	12098.0	-5635834.0
16	15	11	52	839	51.0	55629.0	14013.0	-5635091.0
16	15	11	52	839	52.0	38604.0	15631.0	-5634229.0
16	15	11	52	840	53.0	17502.0	17048.0	-5634983.0
16	15	11	52	840	54.0	2307.0	18551.0	-5635784.0
16	15	11	52	841	55.0	-13566.0	19923.0	-5635065.0
16	15	11	52	841	56.0	-28071.0	21946.0	-5634304.0
16	15	11	52	841	57.0	-40196.0	23911.0	-5634877.0
16	15	11	52	842	58.0	-41184.0	23399.0	-5634924.0
16	15	11	52	842	59.0	-43510.0	24368.0	-5634226.0
16	15	11	52	843	60.0	-56257.0	26468.0	-5634654.0
16	15	11	52	843	61.0	-58592.0	28226.0	-5635538.0
16	15	11	52	843	62.0	-59137.0	29703.0	-5634745.0
16	15	11	52	844	63.0	-66565.0	31491.0	-5634189.0
16	15	11	52	918	64.0	-73163.0	35466.0	-5635301.0
16	15	11	52	919	65.0	-67995.0	36874.0	-5635642.0
16	15	11	52	919	66.0	-56762.0	38807.0	-5634754.0
16	15	11	52	920	67.0	-45674.0	42505.0	-5633994.0
16	15	11	52	920	68.0	-23944.0	44497.0	-5634626.0
16	15	11	52	920	69.0	-774.0	46338.0	-5635426.0
16	15	11	52	921	70.0	29164.0	47503.0	-5634671.0
16	15	11	52	921	71.0	55226.0	49044.0	-5633976.0
16	15	11	52	921	72.0	79354.0	49796.0	-5634871.0
16	15	11	52	922	73.0	99864.0	48321.0	-5635381.0
16	15	11	52	922	74.0	117275.0	48730.0	-5634594.0
16	15	11	52	922	75.0	111184.0	49488.0	-5634174.0
16	15	11	52	923	76.0	86233.0	51683.0	-5635412.0
16	15	11	52	923	77.0	46893.0	53023.0	-5635272.0
16	15	11	52	923	78.0	-16099.0	53627.0	-5634469.0
16	15	11	52	924	79.0	-89216.0	54172.0	-5633917.0
16	15	11	52	924	80.0	-161662.0	53021.0	-5635376.0
16	15	11	52	924	81.0	-269811.0	50452.0	-5635590.0
16	15	11	52	925	82.0	-494601.0	50213.0	-5634766.0
16	15	11	52	925	83.0	-747048.0	51397.0	-5634176.0
16	15	11	52	925	84.0	-714852.0	51665.0	-5635702.0
16	15	11	52	925	85.0	-314120.0	50732.0	-5635804.0
16	15	11	52	926	86.0	185509.0	49324.0	-5635091.0
16	15	11	52	926	87.0	484477.0	47773.0	-5634350.0
16	15	11	52	926	88.0	531320.0	44821.0	-5635422.0
16	15	11	52	926	89.0	508411.0	43031.0	-5635957.0
16	15	11	52	927	90.0	458835.0	43568.0	-5635222.0
16	15	11	52	927	91.0	366699.0	42954.0	-5634864.0
16	15	11	52	928	92.0	282075.0	41429.0	-5636244.0
16	15	11	52	928	93.0	206466.0	39804.0	-5635953.0
16	15	11	52	928	94.0	139407.0	37842.0	-5635186.0
16	15	11	52	929	95.0	93736.0	34737.0	-5634827.0
16	15	11	52	929	96.0	55531.0	31723.0	-5636375.0
16	15	11	52	929	97.0	18148.0	29957.0	-5636122.0
16	15	11	52	930	98.0	-12029.0	29733.0	-5635377.0
16	15	11	52	930	99.0	-24224.0	28644.0	-5634622.0
16	15	11	52	930	100.0	-25916.0	26964.0	-5635372.0
16	15	11	52	931	101.0	-30403.0	25018.0	-5635420.0
16	15	11	52	931	102.0	-36442.0	22892.0	-5634726.0
16	15	11	52	932	103.0	-46032.0	20834.0	-5635287.0
16	15	11	52	932	104.0	-58981.0	19876.0	-5636352.0
16	15	11	52	932	105.0	-98417.0	17813.0	-5635595.0
16	15	11	52	933	106.0	-178980.0	15667.0	-5634966.0
16	15	11	52	933	107.0	-272622.0	13355.0	-5635894.0
16	15	11	52	933	108.0	-335708.0	12323.0	-5636534.0
16	15	11	52	934	109.0	-320023.0	10374.0	-5635705.0
16	15	11	52	934	110.0	-242869.0	7114.0	-5635075.0
16	15	11	52	935	111.0	-150755.0	3880.0	-5635857.0
16	15	11	52	935	112.0	-73532.0	1836.0	-5636590.0
16	15	11	52	935	113.0	-12370.0	-133.0	-5635768.0
16	15	11	52	936	114.0	36984.0	-1451.0	-5635057.0
16	15	11	52	936	115.0	69561.0	-2640.0	-5635736.0
16	15	11	52	936	116.0	95283.0	-2431.0	-5636356.0
16	15	11	52	995	117.0	133802.0	-2922.0	-5635579.0
16	15	11	52	996	118.0	189699.0	-5401.0	-5634899.0
16	15	11	52	996	119.0	243916.0	-5131.0	-5635892.0
16	15	11	52	996	120.0	277991.0	-5962.0	-5636292.0
16	15	11	52	997	121.0	293961.0	-6962.0	-5635499.0
16	15	11	52	997	122.0	298716.0	-7892.0	-5634967.0
16	15	11	52	997	123.0	301267.0	-8902.0	-5636266.0
16	15	11	52	998	124.0	302966.0	-10520.0	-5636294.0
16	15	11	52	998	125.0	301898.0	-12802.0	-5635486.0
16	15	11	52	998	126.0	288259.0	-15335.0	-5635029.0
16	15	11	52	999	127.0	269836.0	-16329.0	-5636169.0
16	15	11	52	999	128.0	260879.0	-15977.0	-5635969.0
16	15	11	52	999	129.0	259552.0	-14693.0	-5635141.0
16	15	11	53	0	130.0	229820.0	-15204.0	-5634867.0
16	15	11	53	0	131.0	179443.0	-15940.0	-5636174.0
16	15	11	53	0	132.0	161111.0	-17249.0	-5635781.0
16	15	11	53	0	133.0	190565.0	-20380.0	-5635012.0
16	15	11	53	1	134.0	237249.0	-21321.0	-5634655.0
16	15	11	53	1	135.0	260322.0	-19646.0	-5636227.0
16	15	11	53	1	136.0	244184.0	-19508.0	-5636037.0
16	15	11	53	2	137.0	193036.0	-19683.0	-5635284.0
16	15	11	53	2	138.0	128541.0	-20405.0	-5634953.0
16	15	11	53	2	139.0	74804.0	-20184.0	-5636206.0
16	15	11	53	3	140.0	45226.0	-21861.0	-5635815.0
16	15	11	53	3	141.0	39603.0	-24127.0	-5635089.0
16	15	11	53	3	142.0	42426.0	-24248.0	-5634873.0
16	15	11	53	3	143.0	46719.0	-22524.0	-5636101.0
16	15	11	53	4	144.0	50129.0	-22203.0	-5635592.0
16	15	11	53	4	145.0	56038.0	-22238.0	-5634867.0
16	15	11	53	4	146.0	60774.0	-22027.0	-5635401.0
16	15	11	53	4	147.0	61331.0	-22645.0	-5636432.0
16	15	11	53	77	148.0	64981.0	-25012.0	-5635637.0
16	15	11	53	77	149.0	65429.0	-25563.0	-5634874.0
16	15	11	53	78	150.0	62448.0	-23552.0	-5635102.0
16	15	11	53	78	151.0	57801.0	-22786.0	-5636241.0
16	15	11	53	78	152.0	71354.0	-22722.0	-5635571.0
16	15	11	53	79	153.0	83777.0	-22637.0	-5634780.0
16	15	11	53	79	154.0	71374.0	-22709.0	-5635164.0
16	15	11	53	79	155.0	60588.0	-22799.0	-5636222.0
16	15	11	53	80	156.0	39204.0	-22719.0	-5635529.0
16	15	11	53	80	157.0	-71.0	-22056.0	-5634774.0
16	15	11	53	81	158.0	-44531.0	-21987.0	-5635642.0
16	15	11	53	81	159.0	-104606.0	-21747.0	-5636381.0
16	15	11	53	81	160.0	-89626.0	-20801.0	-5635621.0
16	15	11	53	82	161.0	7740.0	-21114.0	-5634873.0
16	15	11	53	82	162.0	24867.0	-21925.0	-5635721.0
16	15	11	53	82	163.0	-17336.0	-23984.0	-5636356.0
16	15	11	53	82	164.0	-42786.0	-23911.0	-5635614.0
16	15	11	53	83	165.0	-52411.0	-23531.0	-5634769.0
16	15	11	53	83	166.0	-44132.0	-23301.0	-5635377.0
16	15	11	53	83	167.0	-29119.0	-22621.0	-5636264.0
16	15	11	53	84	168.0	-28310.0	-21402.0	-5635603.0
16	15	11	53	84	169.0	-38018.0	-18544.0	-5634744.0
16	15	11	53	85	170.0	-49307.0	-18644.0	-5635397.0
16	15	11	53	85	171.0	-55239.0	-17340.0	-5636376.0
16	15	11	53	85	172.0	-51977.0	-16179.0	-5635733.0
16	15	11	53	86	173.0	-38034.0	-15440.0	-5635119.0
16	15	11	53	86	174.0	-23215.0	-15058.0	-5636462.0
16	15	11	53	86	175.0	-23444.0	-14566.0	-5636567.0
16	15	11	53	87	176.0	-29024.0	-14096.0	-5635814.0
16	15	11	53	87	177.0	-22665.0	-14091.0	-5635072.0
16	15	11	53	87	178.0	-10811.0	-15140.0	-5636148.0
16	15	11	53	88	179.0	11617.0	-14582.0	-5636462.0
16	15	11	53	88	180.0	32066.0	-13742.0	-5635712.0
16	15	11	53	88	181.0	35922.0	-11294.0	-5635000.0
16	15	11	53	89	182.0	25496.0	-9852.0	-5635863.0
16	15	11	53	89	183.0	5579.0	-8845.0	-5635965.0
16	15	11	53	89	184.0	-16194.0	-8578.0	-5635238.0
16	15	11	53	90	185.0	-32551.0	-9702.0	-5635607.0
16	15	11	53	90	186.0	-43590.0	-9916.0	-5636703.0
16	15	11	53	91	187.0	-51036.0	-7786.0	-5635995.0
16	15	11	53	91	188.0	-56203.0	-6267.0	-5635356.0
16	15	11	53	91	189.0	-57211.0	-5195.0	-5636224.0
16	15	11	53	92	190.0	-52594.0	-4806.0	-5636778.0
16	15	11	53	92	191.0	-49799.0	-4429.0	-5635921.0
16	15	11	53	92	192.0	-59198.0	-4640.0	-5635314.0
16	15	11	53	93	193.0	-83457.0	-5982.0	-5636332.0
16	15	11	53	93	194.0	-99285.0	-5697.0	-5636799.0
16	15	11	53	94	195.0	-95944.0	-4680.0	-5635934.0
16	15	11	53	94	196.0	-88409.0	-2195.0	-5635185.0
16	15	11	53	94	197.0	-88464.0	-1155.0	-5635839.0
16	15	11	53	95	198.0	-91657.0	-731.0	-5636676.0
16	15	11	53	95	199.0	-90075.0	-714.0	-5635919.0
16	15	11	53	164	200.0	-97879.0	-1796.0	-5635189.0
16	15	11	53	164	201.0	-106134.0	-2738.0	-5635999.0
16	15	11	53	164	202.0	-111037.0	-625.0	-5636908.0
16	15	11	53	165	203.0	-107610.0	1023.0	-5636155.0
16	15	11	53	165	204.0	-102931.0	948.0	-5635454.0
16	15	11	53	166	205.0	-93719.0	1170.0	-5636481.0
16	15	11	53	166	206.0	-75763.0	1834.0	-5637079.0
16	15	11	53	166	207.0	-52360.0	1221.0	-5636270.0
16	15	11	53	167	208.0	-33895.0	-1317.0	-5635568.0
16	15	11	53	167	209.0	-27320.0	-1941.0	-5636608.0
16	15	11	53	167	210.0	-26064.0	-1119.0	-5636958.0
16	15	11	53	167	211.0	-24318.0	1323.0	-5636143.0
16	15	11	53	168	212.0	-19496.0	1978.0	-5635399.0
16	15	11	53	168	213.0	-395.0	2128.0	-5636454.0
16	15	11	53	168	214.0	24721.0	1978.0	-5637028.0
16	15	11	53	168	215.0	51391.0	374.0	-5636286.0
16	15	11	53	169	216.0	80508.0	-344.0	-5635518.0
16	15	11	53	169	217.0	114788.0	1323.0	-5636401.0
16	15	11	53	170	218.0	153828.0	2402.0	-5636830.0
16	15	11	53	170	219.0	186817.0	3159.0	-5636096.0
16	15	11	53	171	220.0	205748.0	3207.0	-5635577.0
16	15	11	53	171	221.0	204488.0	2316.0	-5637001.0
16	15	11	53	172	222.0	194460.0	1628.0	-5637011.0
16	15	11	53	172	223.0	187171.0	13.0	-5636226.0
16	15	11	53	173	224.0	181568.0	-500.0	-5635672.0
16	15	11	53	173	225.0	161929.0	244.0	-5636986.0
16	15	11	53	174	226.0	29444.0	2849.0	-5636891.0
16	15	11	53	174	227.0	-294598.0	3244.0	-5636054.0
16	15	11	53	174	228.0	-660390.0	3608.0	-5635335.0
16	15	11	53	175	229.0	-902971.0	3366.0	-5636174.0
16	15	11	53	175	230.0	-916092.0	1350.0	-5635976.0
16	15	11	53	175	231.0	-738199.0	449.0	-5635297.0
16	15	11	53	176	232.0	-495183.0	1724.0	-5636062.0
16	15	11	53	176	233.0	-258724.0	1921.0	-5636826.0
16	15	11	53	176	234.0	-86178.0	1700.0	-5636027.0
16	15	11	53	176	235.0	-4574.0	1777.0	-5635477.0
16	15	11	53	177	236.0	1193.0	2184.0	-5636493.0
16	15	11	53	234	237.0	15276.0	1306.0	-5636791.0
16	15	11	53	234	238.0	91238.0	-816.0	-5635938.0
16	15	11	53	234	239.0	140731.0	-769.0	-5635398.0
16	15	11	53	235	240.0	111170.0	24.0	-5636447.0
16	15	11	53	235	241.0	73427.0	1573.0	-5636736.0
16	15	11	53	235	242.0	94574.0	1962.0	-5635803.0
16	15	11	53	236	243.0	183654.0	1967.0	-5635265.0
16	15	11	53	236	244.0	341009.0	1575.0	-5636522.0
16	15	11	53	236	245.0	476351.0	-304.0	-5636744.0
16	15	11	53	236	246.0	520448.0	-967.0	-5635894.0
16	15	11	53	237	247.0	470722.0	1078.0	-5635330.0
16	15	11	53	237	248.0	346338.0	2050.0	-5636454.0
16	15	11	53	237	249.0	191493.0	2013.0	-5636587.0
16	15	11	53	238	250.0	78633.0	2031.0	-5635712.0
16	15	11	53	238	251.0	28837.0	2051.0	-5635400.0
16	15	11	53	238	252.0	8539.0	995.0	-5636661.0
16	15	11	53	238	253.0	-6074.0	-1471.0	-5636447.0
16	15	11	53	239	254.0	-19892.0	-1442.0	-5635589.0
16	15	11	53	239	255.0	-48641.0	86.0	-5635487.0
16	15	11	53	239	0.0	-93527.0	649.0	-5636732.0
16	15	11	53	239	1.0	-161652.0	674.0	-5636304.0
16	15	11	53	240	2.0	-228824.0	523.0	-5635450.0
16	15	11	53	240	3.0	-285438.0	775.0	-5635044.0
16	15	11	53	240	4.0	-326979.0	-840.0	-5636279.0
16	15	11	53	241	5.0	-340649.0	-2208.0	-5635969.0
16	15	11	53	241	6.0	-338416.0	-2364.0	-5635183.0
16	15	11	53	241	7.0	-331381.0	-2252.0	-5635133.0
16	15	11	53	242	8.0	-322944.0	-557.0	-5636057.0
16	15	11	53	242	9.0	-321951.0	611.0	-5635460.0
16	15	11	53	242	10.0	-314627.0	833.0	-5635052.0
16	15	11	53	243	11.0	-304461.0	-173.0	-5636249.0
16	15	11	53	320	12.0	-292002.0	-2034.0	-5636099.0
16	15	11	53	321	13.0	-286337.0	-1581.0	-5635260.0
16	15	11	53	321	14.0	-282752.0	248.0	-5634986.0
16	15	11	53	322	15.0	-261097.0	254.0	-5636570.0
16	15	11	53	322	16.0	-225268.0	535.0	-5636464.0
16	15	11	53	322	17.0	-181076.0	421.0	-5635599.0
16	15	11	53	323	18.0	-138215.0	420.0	-5635419.0
16	15	11	53	323	19.0	-98001.0	-1445.0	-5636737.0
16	15	11	53	323	20.0	-62052.0	-2657.0	-5636441.0
16	15	11	53	324	21.0	-26551.0	-2289.0	-5635589.0
16	15	11	53	324	22.0	19514.0	348.0	-5635131.0
16	15	11	53	325	23.0	61652.0	774.0	-5636294.0
16	15	11	53	326	24.0	98176.0	1182.0	-5636341.0
16	15	11	53	327	25.0	124882.0	1011.0	-5635456.0
16	15	11	53	327	26.0	146057.0	44.0	-5635395.0
16	15	11	53	328	27.0	158744.0	-2298.0	-5636660.0
16	15	11	53	328	28.0	169209.0	-1932.0	-5636276.0
16	15	11	53	329	29.0	172104.0	-9.0	-5635404.0
16	15	11	53	329	30.0	172431.0	893.0	-5635366.0
16	15	11	53	330	31.0	163997.0	1133.0	-5636651.0
16	15	11	53	330	32.0	153483.0	1218.0	-5636267.0
16	15	11	53	331	33.0	133243.0	733.0	-5635383.0
16	15	11	53	331	34.0	117911.0	-1130.0	-5635557.0
16	15	11	53	331	35.0	110598.0	-2267.0	-5636584.0
16	15	11	53	332	36.0	110759.0	-2104.0	-5636039.0
16	15	11	53	332	37.0	117721.0	-82.0	-5635162.0
16	15	11	53	333	38.0	127256.0	599.0	-5635264.0
16	15	11	53	333	39.0	133006.0	776.0	-5636584.0
16	15	11	53	334	40.0	130234.0	1088.0	-5636136.0
16	15	11	53	334	41.0	123669.0	442.0	-5635276.0
16	15	11	53	335	42.0	126019.0	-1327.0	-5635332.0
16	15	11	53	415	43.0	129616.0	-986.0	-5636597.0
16	15	11	53	415	44.0	146083.0	1311.0	-5636154.0
16	15	11	53	415	45.0	152861.0	2447.0	-5635304.0
16	15	11	53	416	46.0	149484.0	3159.0	-5635721.0
16	15	11	53	416	47.0	138610.0	4087.0	-5636671.0
16	15	11	53	416	48.0	129401.0	4998.0	-5636007.0
16	15	11	53	416	49.0	126861.0	4160.0	-5635214.0
16	15	11	53	417	50.0	117710.0	6256.0	-5636012.0
16	15	11	53	417	51.0	110459.0	8502.0	-5636643.0
16	15	11	53	417	52.0	100382.0	9273.0	-5635857.0
16	15	11	53	417	53.0	87118.0	9810.0	-5635047.0
16	15	11	53	417	54.0	74641.0	11037.0	-5635204.0
16	15	11	53	418	55.0	54886.0	12138.0	-5635958.0
16	15	11	53	418	56.0	36210.0	12801.0	-5635311.0
16	15	11	53	418	57.0	9434.0	14394.0	-5635167.0
16	15	11	53	418	63.0	-97906.0	24870.0	-5635871.0
16	15	11	53	419	64.0	-96647.0	23957.0	-5635058.0
16	15	11	53	419	65.0	-93854.0	24790.0	-5635500.0
16	15	11	53	419	66.0	-88889.0	26916.0	-5636574.0
16	15	11	53	419	67.0	-83026.0	28784.0	-5635868.0
16	15	11	53	420	68.0	-74466.0	30616.0	-5634989.0
16	15	11	53	420	69.0	-56478.0	32863.0	-5635149.0
16	15	11	53	420	70.0	-49293.0	36677.0	-5636323.0
16	15	11	53	420	71.0	-48701.0	38848.0	-5635807.0
16	15	11	53	421	72.0	-38616.0	39793.0	-5634954.0
16	15	11	53	421	73.0	-22122.0	43534.0	-5634969.0
16	15	11	53	421	74.0	803.0	45617.0	-5636046.0
16	15	11	53	421	75.0	32691.0	47159.0	-5635569.0
16	15	11	53	422	76.0	69144.0	48741.0	-5634862.0
16	15	11	53	422	77.0	102419.0	50336.0	-5635766.0
16	15	11	53	422	78.0	144459.0	51312.0	-5635965.0
16	15	11	53	422	79.0	175598.0	50442.0	-5635204.0
16	15	11	53	423	80.0	197150.0	50667.0	-5634518.0
16	15	11	53	423	81.0	219363.0	51998.0	-5635722.0
16	15	11	53	423	82.0	227818.0	54269.0	-5635926.0
16	15	11	53	423	83.0	223483.0	55118.0	-5635159.0
16	15	11	53	424	84.0	197813.0	55208.0	-5634558.0
16	15	11	53	424	85.0	153318.0	54866.0	-5635932.0
16	15	11	53	424	86.0	85781.0	53507.0	-5636062.0
16	15	11	53	424	87.0	1461.0	50898.0	-5635279.0
16	15	11	53	425	88.0	-76791.0	50841.0	-5634559.0
16	15	11	53	425	89.0	-164136.0	52001.0	-5635787.0
16	15	11	53	425	90.0	-351846.0	52039.0	-5636296.0
16	15	11	53	425	91.0	-605766.0	51122.0	-5635546.0
16	15	11	53	425	92.0	-663885.0	49748.0	-5634790.0
16	15	11	53	426	93.0	-332618.0	48704.0	-5635461.0
16	15	11	53	426	94.0	156009.0	45481.0	-5635471.0
16	15	11	53	426	95.0	475583.0	43112.0	-5634866.0
16	15	11	53	426	96.0	531071.0	42456.0	-5635810.0
16	15	11	53	427	97.0	492853.0	42678.0	-5636486.0
16	15	11	53	427	98.0	441771.0	41213.0	-5635612.0
16	15	11	53	427	99.0	359698.0	40053.0	-5634877.0
16	15	11	53	427	100.0	290107.0	38844.0	-5635534.0
16	15	11	53	428	101.0	224239.0	36492.0	-5636131.0
16	15	11	53	428	102.0	160358.0	34301.0	-5635317.0
16	15	11	53	506	103.0	116980.0	33103.0	-5634692.0
16	15	11	53	506	104.0	85834.0	31493.0	-5635609.0
16	15	11	53	506	105.0	64638.0	28894.0	-5635974.0
16	15	11	53	506	106.0	44550.0	27370.0	-5635127.0
16	15	11	53	507	107.0	31029.0	25275.0	-5634750.0
16	15	11	53	507	108.0	13219.0	22969.0	-5636074.0
16	15	11	53	507	109.0	-1306.0	19315.0	-5636014.0
16	15	11	53	508	110.0	-22798.0	16767.0	-5635174.0
16	15	11	53	508	111.0	-56949.0	14746.0	-5634837.0
16	15	11	53	508	112.0	-118344.0	12899.0	-5636085.0
16	15	11	53	508	113.0	-203132.0	11187.0	-5635833.0
16	15	11	53	509	114.0	-300118.0	9643.0	-5635016.0
16	15	11	53	509	115.0	-390813.0	9731.0	-5634575.0
16	15	11	53	509	116.0	-385658.0	7482.0	-5636079.0
16	15	11	53	509	117.0	-298328.0	5603.0	-5635993.0
16	15	11	53	510	118.0	-209278.0	4861.0	-5635204.0
16	15	11	53	510	119.0	-143746.0	3283.0	-5634758.0
16	15	11	53	510	120.0	-107483.0	2185.0	-5636273.0
16	15	11	53	510	121.0	-86409.0	928.0	-5636162.0
16	15	11	53	511	122.0	-87387.0	-863.0	-5635399.0
16	15	11	53	511	123.0	-94522.0	-2485.0	-5635033.0
16	15	11	53	511	124.0	-70166.0	-5636.0	-5636497.0
16	15	11	53	511	125.0	-14626.0	-7880.0	-5636226.0
16	15	11	53	512	126.0	40444.0	-9109.0	-5635457.0
16	15	11	53	512	127.0	81754.0	-8163.0	-5635069.0
16	15	11	53	512	128.0	93471.0	-7874.0	-5636131.0
16	15	11	53	512	129.0	98412.0	-8823.0	-5635714.0
16	15	11	53	513	130.0	103558.0	-9687.0	-5635124.0
16	15	11	53	513	131.0	122924.0	-12143.0	-5636157.0
16	15	11	53	513	132.0	131883.0	-14723.0	-5636438.0
16	15	11	53	513	133.0	128339.0	-15023.0	-5635568.0
16	15	11	53	514	134.0	120111.0	-14216.0	-5634955.0
16	15	11	53	514	135.0	116316.0	-14766.0	-5635902.0
16	15	11	53	514	136.0	115381.0	-14970.0	-5636341.0
16	15	11	53	514	137.0	114512.0	-15657.0	-5635469.0
16	15	11	53	515	138.0	120203.0	-16922.0	-5635133.0
16	15	11	53	515	139.0	129942.0	-19760.0	-5636575.0
16	15	11	53	515	140.0	131643.0	-20857.0	-5636579.0
16	15	11	53	515	141.0	133441.0	-19759.0	-5635697.0
16	15	11	53	516	142.0	130136.0	-18941.0	-5635259.0
16	15	11	53	516	143.0	132559.0	-19467.0	-5636386.0
16	15	11	53	516	144.0	131385.0	-19978.0	-5636404.0
16	15	11	53	516	145.0	129966.0	-20857.0	-5635516.0
16	15	11	53	517	146.0	129608.0	-23012.0	-5635267.0
16	15	11	53	598	147.0	126783.0	-24597.0	-5636596.0
16	15	11	53	598	148.0	115055.0	-24604.0	-5636415.0
16	15	11	53	599	149.0	74114.0	-22956.0	-5635531.0
16	15	11	53	599	150.0	59544.0	-22422.0	-5635002.0
16	15	11	53	599	151.0	70563.0	-22361.0	-5636052.0
16	15	11	53	599	152.0	73869.0	-22239.0	-5636137.0
16	15	11	53	600	153.0	81961.0	-22499.0	-5635265.0
16	15	11	53	600	154.0	81603.0	-22569.0	-5634848.0
16	15	11	53	600	155.0	74991.0	-22663.0	-5636051.0
16	15	11	53	600	156.0	75766.0	-23077.0	-5635896.0
16	15	11	53	600	157.0	90638.0	-23587.0	-5635029.0
16	15	11	53	601	158.0	98692.0	-22912.0	-5634967.0
16	15	11	53	601	159.0	113511.0	-22998.0	-5636402.0
16	15	11	53	601	160.0	118739.0	-22716.0	-5636011.0
16	15	11	53	601	161.0	115229.0	-24224.0	-5635188.0
16	15	11	53	602	162.0	114236.0	-25942.0	-5635169.0
16	15	11	53	602	163.0	112264.0	-25866.0	-5636421.0
16	15	11	53	602	164.0	108673.0	-25714.0	-5635884.0
16	15	11	53	602	165.0	103646.0	-25551.0	-5635086.0
16	15	11	53	602	166.0	98640.0	-24809.0	-5635064.0
16	15	11	53	603	167.0	90338.0	-23220.0	-5636455.0
16	15	11	53	603	168.0	78431.0	-22196.0	-5635941.0
16	15	11	53	603	169.0	62749.0	-23391.0	-5635171.0
16	15	11	53	603	170.0	47643.0	-21627.0	-5634921.0
16	15	11	53	603	171.0	35725.0	-20604.0	-5635735.0
16	15	11	53	604	172.0	26553.0	-19537.0	-5635199.0
16	15	11	53	604	173.0	20351.0	-19274.0	-5634796.0
16	15	11	53	604	174.0	21188.0	-18653.0	-5636070.0
16	15	11	53	604	175.0	19071.0	-18133.0	-5635943.0
16	15	11	53	604	176.0	16222.0	-19333.0	-5635083.0
16	15	11	53	605	177.0	12124.0	-21157.0	-5634853.0
16	15	11	53	605	178.0	4591.0	-20986.0	-5636041.0
16	15	11	53	605	179.0	-660.0	-19383.0	-5635694.0
16	15	11	53	605	180.0	1768.0	-16582.0	-5634814.0
16	15	11	53	606	181.0	5284.0	-15301.0	-5634424.0
16	15	11	53	606	182.0	4511.0	-14779.0	-5635765.0
16	15	11	53	606	183.0	6654.0	-14459.0	-5635889.0
16	15	11	53	606	184.0	5449.0	-15216.0	-5634991.0
16	15	11	53	607	185.0	270.0	-14577.0	-5634619.0
16	15	11	53	607	186.0	-4217.0	-12284.0	-5635895.0
16	15	11	53	607	187.0	-4127.0	-10674.0	-5635844.0
16	15	11	53	607	188.0	-3131.0	-10169.0	-5634968.0
16	15	11	53	608	189.0	-5721.0	-9949.0	-5635060.0
16	15	11	53	608	190.0	-15499.0	-9304.0	-5636354.0
16	15	11	53	608	191.0	-34166.0	-9626.0	-5635911.0
16	15	11	53	702	192.0	-49669.0	-10408.0	-5635000.0
16	15	11	53	702	193.0	-63783.0	-9986.0	-5634916.0
16	15	11	53	702	194.0	-75145.0	-7838.0	-5636151.0
16	15	11	53	703	195.0	-77760.0	-6541.0	-5635759.0
16	15	11	53	703	196.0	-79186.0	-5554.0	-5634857.0
16	15	11	53	703	197.0	-84244.0	-4537.0	-5635075.0
16	15	11	53	704	198.0	-86519.0	-4517.0	-5636334.0
16	15	11	53	704	199.0	-85987.0	-5994.0	-5635801.0
16	15	11	53	704	200.0	-90273.0	-5569.0	-5634904.0
16	15	11	53	704	201.0	-100956.0	-3411.0	-5634766.0
16	15	11	53	705	202.0	-118166.0	-2253.0	-5635864.0
16	15	11	53	705	203.0	-130687.0	-1517.0	-5635467.0
16	15	11	53	705	204.0	-135189.0	-1177.0	-5634650.0
16	15	11	53	705	205.0	-139934.0	-766.0	-5635272.0
16	15	11	53	706	206.0	-135047.0	-2389.0	-5635921.0
16	15	11	53	706	207.0	-130275.0	-3486.0	-5635182.0
16	15	11	53	706	208.0	-121636.0	-3017.0	-5634384.0
16	15	11	53	706	209.0	-111507.0	-886.0	-5635116.0
16	15	11	53	706	210.0	-102882.0	375.0	-5635670.0
16	15	11	53	707	211.0	-93322.0	539.0	-5634906.0
16	15	11	53	707	212.0	-88372.0	1311.0	-5634103.0
16	15	11	53	707	213.0	-81501.0	1342.0	-5634537.0
16	15	11	53	707	214.0	-86659.0	-562.0	-5635655.0
16	15	11	53	708	215.0	-91727.0	-1056.0	-5634971.0
16	15	11	53	708	216.0	-98606.0	907.0	-5634212.0
16	15	11	53	708	217.0	-103298.0	2133.0	-5634846.0
16	15	11	53	708	218.0	-91432.0	2729.0	-5635657.0
16	15	11	53	709	219.0	-44895.0	3229.0	-5634926.0
16	15	11	53	709	220.0	23709.0	3318.0	-5634479.0
16	15	11	53	709	221.0	91856.0	2541.0	-5635829.0
16	15	11	53	709	222.0	159125.0	889.0	-5635884.0
16	15	11	53	710	223.0	216001.0	762.0	-5635054.0
16	15	11	53	710	224.0	259674.0	2631.0	-5634623.0
16	15	11	53	710	225.0	278862.0	3736.0	-5635862.0
16	15	11	53	710	226.0	273699.0	4626.0	-5635877.0
16	15	11	53	711	227.0	244132.0	4368.0	-5634947.0
16	15	11	53	711	228.0	211494.0	3270.0	-5634330.0
16	15	11	53	711	229.0	199048.0	1000.0	-5635311.0
16	15	11	53	712	230.0	173306.0	667.0	-5635775.0
16	15	11	53	712	231.0	-60216.0	3174.0	-5634872.0
16	15	11	53	712	232.0	-563113.0	4488.0	-5634272.0
16	15	11	53	712	233.0	-1015116.0	3956.0	-5635329.0
16	15	11	53	713	234.0	-1126087.0	3830.0	-5635653.0
16	15	11	53	713	235.0	-934287.0	2963.0	-5634791.0
16	15	11	53	713	236.0	-602952.0	1036.0	-5634799.0
16	15	11	53	713	237.0	-275095.0	-96.0	-5636179.0
16	15	11	53	714	238.0	-64071.0	53.0	-5635851.0
16	15	11	53	714	239.0	11078.0	2193.0	-5634981.0
16	15	11	53	714	240.0	62657.0	3043.0	-5634932.0
16	15	11	53	714	241.0	103629.0	3464.0	-5636187.0
16	15	11	53	714	242.0	112070.0	3486.0	-5635806.0
16	15	11	53	715	243.0	105342.0	3290.0	-5634891.0
16	15	11	53	715	244.0	76066.0	736.0	-5634598.0
16	15	11	53	715	245.0	10819.0	305.0	-5635999.0
16	15	11	53	715	246.0	-17071.0	2156.0	-5635815.0
16	15	11	53	716	247.0	25856.0	2637.0	-5634969.0
16	15	11	53	716	248.0	114100.0	2763.0	-5634611.0
16	15	11	53	716	249.0	236431.0	2586.0	-5635846.0
16	15	11	53	716	250.0	350355.0	2687.0	-5635591.0
16	15	11	53	717	251.0	409734.0	1200.0	-5634800.0
16	15	11	53	804	252.0	391336.0	-237.0	-5634853.0
16	15	11	53	805	253.0	283864.0	-39.0	-5636114.0
16	15	11	53	805	254.0	139496.0	1755.0	-5635610.0
16	15	11	53	805	255.0	36751.0	2152.0	-5634803.0
16	15	11	53	806	0.0	5369.0	2024.0	-5635306.0
16	15	11	53	806	1.0	10616.0	2541.0	-5636186.0
16	15	11	53	806	2.0	21381.0	2665.0	-5635460.0
16	15	11	53	806	3.0	17263.0	2329.0	-5634626.0
16	15	11	53	807	4.0	-846.0	2466.0	-5634479.0
16	15	11	53	807	5.0	-47517.0	2483.0	-5635247.0
16	15	11	53	807	6.0	-114170.0	2953.0	-5634606.0
16	15	11	53	807	7.0	-177619.0	2583.0	-5634127.0
16	15	11	53	808	8.0	-210175.0	2455.0	-5635493.0
16	15	11	53	808	9.0	-221119.0	2828.0	-5635574.0
16	15	11	53	808	10.0	-214334.0	958.0	-5634753.0
16	15	11	53	808	11.0	-201925.0	-690.0	-5634544.0
16	15	11	53	809	12.0	-197365.0	-811.0	-5635794.0
16	15	11	53	809	13.0	-191947.0	-395.0	-5635452.0
16	15	11	53	809	14.0	-187764.0	-602.0	-5634620.0
16	15	11	53	809	15.0	-200024.0	-399.0	-5634704.0
16	15	11	53	810	16.0	-225892.0	1006.0	-5636087.0
16	15	11	53	810	17.0	-249172.0	1243.0	-5635654.0
16	15	11	53	810	18.0	-263081.0	-134.0	-5634802.0
16	15	11	53	811	19.0	-266354.0	1534.0	-5634596.0
16	15	11	53	811	20.0	-248031.0	2286.0	-5635848.0
16	15	11	53	811	21.0	-232511.0	2392.0	-5635578.0
16	15	11	53	811	22.0	-213036.0	2713.0	-5634698.0
16	15	11	53	812	23.0	-187372.0	2841.0	-5634372.0
16	15	11	53	812	24.0	-158959.0	2674.0	-5635806.0
16	15	11	53	812	25.0	-130151.0	970.0	-5635820.0
16	15	11	53	812	26.0	-103385.0	-579.0	-5634931.0
16	15	11	53	813	27.0	-72778.0	-738.0	-5634779.0
16	15	11	53	813	28.0	-45723.0	1201.0	-5636077.0
16	15	11	53	813	29.0	-9876.0	1966.0	-5635816.0
16	15	11	53	813	30.0	29458.0	1633.0	-5634909.0
16	15	11	53	814	31.0	62129.0	2011.0	-5635224.0
16	15	11	53	814	32.0	95263.0	1672.0	-5636267.0
16	15	11	53	814	33.0	126028.0	-414.0	-5635692.0
16	15	11	53	814	34.0	154601.0	-247.0	-5634832.0
16	15	11	53	815	35.0	176050.0	2096.0	-5634769.0
16	15	11	53	815	36.0	182254.0	2709.0	-5635814.0
16	15	11	53	815	37.0	181658.0	2362.0	-5635286.0
16	15	11	53	815	38.0	188690.0	2332.0	-5634463.0
16	15	11	53	816	39.0	197204.0	2634.0	-5634882.0
16	15	11	53	816	40.0	188633.0	848.0	-5635905.0
16	15	11	53	905	41.0	155706.0	-116.0	-5635227.0
16	15	11	53	905	42.0	130241.0	566.0	-5634479.0
16	15	11	53	906	43.0	121571.0	2728.0	-5634932.0
16	15	11	53	906	44.0	119429.0	3398.0	-5635271.0
16	15	11	53	906	45.0	115208.0	3698.0	-5634571.0
16	15	11	53	907	46.0	112173.0	3821.0	-5634788.0
16	15	11	53	907	47.0	113111.0	3343.0	-5635883.0
16	15	11	53	907	48.0	106495.0	2074.0	-5635203.0
16	15	11	53	907	49.0	104268.0	3720.0	-5634416.0
16	15	11	53	908	50.0	103609.0	5473.0	-5634719.0
16	15	11	53	908	51.0	104706.0	6173.0	-5635652.0
16	15	11	53	908	52.0	95765.0	7199.0	-5634969.0
16	15	11	53	908	53.0	88495.0	8104.0	-5634151.0
16	15	11	53	909	54.0	89835.0	8666.0	-5634603.0
16	15	11	53	909	55.0	85738.0	7446.0	-5635622.0
16	15	11	53	909	56.0	89486.0	7089.0	-5634949.0
16	15	11	53	909	57.0	104879.0	7783.0	-5634132.0
16	15	11	53	910	58.0	106372.0	10136.0	-5634748.0
16	15	11	53	910	59.0	103184.0	13713.0	-5635712.0
16	15	11	53	910	60.0	110016.0	15323.0	-5634999.0
16	15	11	53	910	61.0	113773.0	16756.0	-5634290.0
16	15	11	53	911	62.0	99750.0	17751.0	-5635434.0
16	15	11	53	911	63.0	83946.0	17789.0	-5635856.0
16	15	11	53	911	64.0	77406.0	20578.0	-5635085.0
16	15	11	53	912	65.0	71459.0	23869.0	-5634304.0
16	15	11	53	912	66.0	61124.0	25955.0	-5635088.0
16	15	11	53	912	67.0	43849.0	28140.0	-5635610.0
16	15	11	53	912	68.0	17444.0	30382.0	-5634861.0
16	15	11	53	913	69.0	-3318.0	32675.0	-5634053.0
16	15	11	53	913	70.0	-23587.0	32774.0	-5635004.0
16	15	11	53	913	71.0	-45377.0	33719.0	-5635697.0
16	15	11	53	914	72.0	-60409.0	36584.0	-5634967.0
16	15	11	53	914	73.0	-61767.0	41245.0	-5634137.0
16	15	11	53	914	74.0	-56589.0	43081.0	-5634964.0
16	15	11	53	914	75.0	-49719.0	45014.0	-5635558.0
16	15	11	53	915	76.0	-43348.0	46874.0	-5634845.0
16	15	11	53	915	77.0	-33594.0	48125.0	-5634249.0
16	15	11	53	915	78.0	-23482.0	47853.0	-5635122.0
16	15	11	53	915	79.0	-7911.0	49332.0	-5634834.0
16	15	11	53	916	80.0	14081.0	52786.0	-5634233.0
16	15	11	53	916	81.0	43237.0	54221.0	-5635336.0
16	15	11	53	916	82.0	59531.0	55292.0	-5635898.0
16	15	11	53	916	83.0	64662.0	55818.0	-5635016.0
16	15	11	53	917	84.0	73744.0	56598.0	-5634317.0
16	15	11	53	917	85.0	100129.0	54993.0	-5634979.0
16	15	11	53	917	86.0	119794.0	54310.0	-5635846.0
16	15	11	53	917	87.0	139571.0	54892.0	-5635016.0
16	15	11	53	918	88.0	161946.0	56451.0	-5634317.0
16	15	11	53	918	89.0	174441.0	57049.0	-5635237.0
16	15	11	53	918	90.0	168401.0	56393.0	-5635872.0
16	15	11	53	918	91.0	149118.0	56316.0	-5635077.0
16	15	11	54	26	92.0	109502.0	55028.0	-5634508.0
16	15	11	54	26	93.0	60841.0	52106.0	-5635737.0
16	15	11	54	26	94.0	10918.0	51398.0	-5636091.0
16	15	11	54	27	95.0	-45879.0	52413.0	-5635234.0
16	15	11	54	27	96.0	-102823.0	51745.0	-5634514.0
16	15	11	54	27	97.0	-238707.0	50089.0	-5635156.0
16	15	11	54	27	98.0	-510445.0	48716.0	-5635666.0
16	15	11	54	28	99.0	-655178.0	46811.0	-5634841.0
16	15	11	54	28	100.0	-421448.0	44678.0	-5634126.0
16	15	11	54	28	101.0	17576.0	44089.0	-5635155.0
16	15	11	54	28	102.0	331344.0	42686.0	-5635757.0
16	15	11	54	29	103.0	375939.0	41469.0	-5635003.0
16	15	11	54	29	104.0	282352.0	39261.0	-5634204.0
16	15	11	54	29	105.0	192097.0	36747.0	-5634839.0
16	15	11	54	29	106.0	84588.0	34617.0	-5635542.0
16	15	11	54	30	107.0	3259.0	31644.0	-5634842.0
16	15	11	54	30	108.0	-40037.0	27826.0	-5634264.0
16	15	11	54	30	109.0	-86695.0	25327.0	-5635461.0
16	15	11	54	30	110.0	-132272.0	23399.0	-5635550.0
16	15	11	54	31	111.0	-167167.0	21423.0	-5634772.0
16	15	11	54	31	112.0	-180359.0	19704.0	-5634164.0
16	15	11	54	31	113.0	-198609.0	20063.0	-5635503.0
16	15	11	54	32	114.0	-221633.0	18711.0	-5635637.0
16	15	11	54	32	115.0	-256691.0	15086.0	-5634860.0
16	15	11	54	32	116.0	-308424.0	14434.0	-5634180.0
16	15	11	54	33	117.0	-373652.0	13631.0	-5635555.0
16	15	11	54	33	118.0	-402828.0	11820.0	-5635848.0
16	15	11	54	33	119.0	-357971.0	10314.0	-5635105.0
16	15	11	54	33	120.0	-258771.0	8628.0	-5634312.0
16	15	11	54	34	121.0	-145408.0	6861.0	-5635264.0
16	15	11	54	34	122.0	-65471.0	4086.0	-5635977.0
16	15	11	54	34	123.0	-19355.0	993.0	-5635281.0
16	15	11	54	34	124.0	-3629.0	-641.0	-5634651.0
16	15	11	54	35	125.0	-14211.0	-1876.0	-5635897.0
16	15	11	54	35	126.0	-24761.0	-1486.0	-5635969.0
16	15	11	54	35	127.0	-25180.0	-1979.0	-5635187.0
16	15	11	54	36	128.0	-9779.0	-3750.0	-5634712.0
16	15	11	54	36	129.0	12624.0	-5249.0	-5636119.0
16	15	11	54	36	130.0	34951.0	-8560.0	-5635972.0
16	15	11	54	37	131.0	39351.0	-10267.0	-5635173.0
16	15	11	54	37	132.0	45448.0	-9664.0	-5634486.0
16	15	11	54	37	133.0	58579.0	-10130.0	-5635494.0
