16	14	46	9	594	217.0	-382903.0	3218.0	-5675462.0
16	14	46	9	597	218.0	-655988.0	3373.0	-5674878.0
16	14	46	9	598	219.0	-851489.0	3531.0	-5674296.0
16	14	46	9	600	220.0	-912662.0	3298.0	-5675465.0
16	14	46	9	601	221.0	-848077.0	3400.0	-5676135.0
16	14	46	9	605	222.0	-713367.0	2433.0	-5675617.0
16	14	46	9	607	223.0	-569955.0	3121.0	-5674932.0
16	14	46	9	609	224.0	-410906.0	3988.0	-5674864.0
16	14	46	9	611	225.0	-222392.0	3577.0	-5676291.0
16	14	46	9	613	226.0	-33617.0	3301.0	-5676301.0
16	14	46	9	634	227.0	104264.0	3684.0	-5675604.0
16	14	46	9	635	228.0	172989.0	3689.0	-5675178.0
16	14	46	9	636	229.0	185959.0	3217.0	-5676234.0
16	14	46	9	637	230.0	169223.0	3351.0	-5676783.0
16	14	46	9	637	231.0	128673.0	3946.0	-5676095.0
16	14	46	9	638	232.0	68664.0	4216.0	-5675481.0
16	14	46	9	638	233.0	22243.0	3920.0	-5675702.0
16	14	46	9	639	234.0	24841.0	3781.0	-5676927.0
16	14	46	9	639	235.0	66702.0	4204.0	-5676521.0
16	14	46	9	640	236.0	103913.0	4028.0	-5675914.0
16	14	46	9	640	237.0	106978.0	3144.0	-5675983.0
16	14	46	9	641	238.0	81604.0	3064.0	-5677577.0
16	14	46	9	668	239.0	55059.0	3614.0	-5677283.0
16	14	46	9	703	240.0	45967.0	3958.0	-5676632.0
16	14	46	9	703	241.0	58270.0	4002.0	-5676049.0
16	14	46	9	703	242.0	91436.0	4278.0	-5676609.0
16	14	46	9	704	243.0	143101.0	4034.0	-5677069.0
16	14	46	9	704	244.0	193763.0	3898.0	-5676517.0
16	14	46	9	713	245.0	234170.0	4341.0	-5675944.0
16	14	46	9	713	246.0	258953.0	4033.0	-5676649.0
16	14	46	9	713	247.0	269786.0	3708.0	-5676852.0
16	14	46	9	714	248.0	260938.0	3734.0	-5676311.0
16	14	46	9	714	249.0	226764.0	3633.0	-5676897.0
16	14	46	9	714	250.0	176496.0	3869.0	-5678212.0
16	14	46	9	715	251.0	120534.0	4288.0	-5677671.0
16	14	46	9	715	252.0	68523.0	4368.0	-5677108.0
16	14	46	9	715	253.0	40249.0	3878.0	-5676557.0
16	14	46	9	715	254.0	24143.0	3988.0	-5677379.0
16	14	46	9	716	21.0	341141.0	3011.0	-5679452.0
16	14	46	9	716	22.0	252416.0	2014.0	-5678767.0
16	14	46	9	716	23.0	151423.0	2030.0	-5679109.0
16	14	46	9	717	24.0	59756.0	2741.0	-5680456.0
16	14	46	9	717	25.0	-30388.0	3112.0	-5680106.0
16	14	46	9	748	26.0	-107343.0	3686.0	-5679409.0
16	14	46	9	748	27.0	-163288.0	3993.0	-5679178.0
16	14	46	9	749	28.0	-194725.0	4091.0	-5680416.0
16	14	46	9	749	29.0	-203183.0	4366.0	-5680432.0
16	14	46	9	750	30.0	-182462.0	4398.0	-5679729.0
16	14	46	9	750	31.0	-144211.0	3879.0	-5679321.0
16	14	46	9	750	32.0	-94013.0	4034.0	-5680444.0
16	14	46	9	763	33.0	-46537.0	4005.0	-5680875.0
16	14	46	9	764	34.0	-13643.0	3833.0	-5680219.0
16	14	46	9	764	35.0	19206.0	3633.0	-5679631.0
16	14	46	9	764	36.0	67801.0	3521.0	-5679187.0
16	14	46	9	765	37.0	116488.0	4018.0	-5680094.0
16	14	46	9	765	38.0	134305.0	4238.0	-5679918.0
16	14	46	9	765	39.0	121656.0	4005.0	-5679449.0
16	14	46	9	765	40.0	109875.0	3901.0	-5680480.0
16	14	46	9	766	43.0	29926.0	4453.0	-5680011.0
16	14	46	9	766	44.0	-1871.0	3542.0	-5680664.0
16	14	46	9	766	45.0	-32488.0	3898.0	-5681759.0
16	14	46	9	767	46.0	-61950.0	4584.0	-5681182.0
16	14	46	9	767	47.0	-90554.0	5223.0	-5680622.0
16	14	46	9	767	48.0	-114315.0	5670.0	-5680164.0
16	14	46	9	792	49.0	-130669.0	6400.0	-5681234.0
16	14	46	9	792	50.0	-138101.0	7286.0	-5681241.0
16	14	46	9	793	51.0	-140591.0	8503.0	-5680627.0
16	14	46	9	794	52.0	-141669.0	9478.0	-5680691.0
16	14	46	9	794	53.0	-129412.0	10236.0	-5682174.0
16	14	46	9	795	54.0	-101125.0	11229.0	-5681791.0
16	14	46	9	795	55.0	-57366.0	11963.0	-5681214.0
16	14	46	9	814	56.0	-7984.0	12481.0	-5680570.0
16	14	46	9	814	57.0	28906.0	13191.0	-5681369.0
16	14	46	9	815	58.0	55630.0	13831.0	-5681973.0
16	14	46	9	815	59.0	75136.0	14604.0	-5681432.0
16	14	46	9	816	60.0	86296.0	14833.0	-5680984.0
16	14	46	9	816	61.0	85871.0	14899.0	-5682357.0
16	14	46	9	817	62.0	87026.0	15576.0	-5682569.0
16	14	46	9	817	63.0	88491.0	16419.0	-5681977.0
16	14	46	9	818	66.0	110240.0	18159.0	-5683066.0
16	14	46	9	818	67.0	114834.0	18064.0	-5682607.0
16	14	46	9	818	68.0	115166.0	18376.0	-5681956.0
16	14	46	9	819	69.0	120159.0	18251.0	-5681752.0
16	14	46	9	819	70.0	120040.0	18583.0	-5683381.0
16	14	46	9	820	71.0	113916.0	18924.0	-5683504.0
16	14	46	9	841	72.0	97983.0	19156.0	-5682879.0
16	14	46	9	842	73.0	81818.0	19993.0	-5682296.0
16	14	46	9	843	74.0	78970.0	20592.0	-5683199.0
16	14	46	9	843	75.0	111457.0	20653.0	-5683973.0
16	14	46	9	843	76.0	159326.0	20783.0	-5683377.0
16	14	46	9	844	77.0	189210.0	20859.0	-5682731.0
16	14	46	9	844	78.0	201473.0	20301.0	-5683045.0
16	14	46	9	844	79.0	200356.0	20199.0	-5684357.0
16	14	46	9	845	80.0	185844.0	19574.0	-5683987.0
16	14	46	9	845	81.0	155023.0	19976.0	-5683307.0
16	14	46	9	863	82.0	122519.0	19415.0	-5683497.0
16	14	46	9	863	83.0	95323.0	19804.0	-5684856.0
16	14	46	9	863	84.0	74893.0	19375.0	-5684584.0
16	14	46	9	864	85.0	60284.0	18921.0	-5683900.0
16	14	46	9	864	86.0	43722.0	18954.0	-5683391.0
16	14	46	9	864	88.0	-112.0	18794.0	-5685147.0
16	14	46	9	864	89.0	-11727.0	17454.0	-5684524.0
16	14	46	9	865	90.0	-9457.0	16408.0	-5683966.0
16	14	46	9	865	91.0	12274.0	16086.0	-5684583.0
16	14	46	9	865	92.0	35230.0	15099.0	-5685616.0
16	14	46	9	865	93.0	47028.0	14704.0	-5684992.0
16	14	46	9	881	94.0	47625.0	14009.0	-5684428.0
16	14	46	9	882	95.0	46925.0	13489.0	-5684661.0
16	14	46	9	899	96.0	58058.0	13965.0	-5686077.0
16	14	46	9	900	97.0	67244.0	13874.0	-5685632.0
16	14	46	9	900	98.0	72929.0	13158.0	-5685050.0
16	14	46	9	900	99.0	74174.0	12479.0	-5684412.0
16	14	46	9	900	100.0	70974.0	11782.0	-5685084.0
16	14	46	9	901	101.0	64054.0	10883.0	-5685461.0
16	14	46	9	901	102.0	52420.0	10398.0	-5684912.0
16	14	46	9	901	103.0	39317.0	9768.0	-5685072.0
16	14	46	9	901	104.0	27879.0	8941.0	-5686572.0
16	14	46	9	902	105.0	24243.0	7912.0	-5686187.0
16	14	46	9	902	106.0	18658.0	7276.0	-5685598.0
16	14	46	9	902	107.0	18419.0	6651.0	-5685050.0
16	14	46	9	902	108.0	16447.0	5644.0	-5685829.0
16	14	46	9	903	110.0	-11021.0	4693.0	-5685349.0
16	14	46	9	903	111.0	-27901.0	3562.0	-5685572.0
16	14	46	9	903	112.0	-40175.0	2481.0	-5687314.0
16	14	46	9	903	113.0	-44870.0	1749.0	-5686938.0
16	14	46	9	904	114.0	-46851.0	1559.0	-5686351.0
16	14	46	9	904	115.0	-53472.0	1126.0	-5685657.0
16	14	46	9	904	116.0	-64149.0	714.0	-5686343.0
16	14	46	9	928	117.0	-90444.0	617.0	-5687285.0
16	14	46	9	947	118.0	-149480.0	158.0	-5686751.0
16	14	46	9	948	119.0	-252130.0	389.0	-5686060.0
16	14	46	9	948	120.0	-393051.0	-56.0	-5686217.0
16	14	46	9	948	121.0	-544801.0	-686.0	-5687555.0
16	14	46	9	949	122.0	-585314.0	-1024.0	-5687262.0
16	14	46	9	949	123.0	-428351.0	-1907.0	-5686619.0
16	14	46	9	949	124.0	-122442.0	-2588.0	-5686442.0
16	14	46	9	950	125.0	191523.0	-2635.0	-5687971.0
16	14	46	9	950	126.0	378586.0	-3138.0	-5688069.0
16	14	46	9	950	127.0	473718.0	-3425.0	-5687397.0
16	14	46	9	951	128.0	521660.0	-3271.0	-5686858.0
16	14	46	9	951	129.0	493982.0	-3095.0	-5687844.0
16	14	46	9	951	130.0	407698.0	-3337.0	-5688484.0
16	14	46	9	951	131.0	304099.0	-3279.0	-5687832.0
16	14	46	9	952	133.0	67734.0	-3757.0	-5687186.0
16	14	46	9	952	134.0	-38321.0	-4472.0	-5688603.0
16	14	46	9	952	135.0	-144897.0	-4745.0	-5688366.0
16	14	46	9	952	136.0	-212927.0	-4722.0	-5687616.0
16	14	46	9	953	137.0	-195208.0	-4403.0	-5687213.0
16	14	46	9	953	138.0	-89493.0	-4207.0	-5688506.0
16	14	46	9	972	139.0	47469.0	-4772.0	-5689035.0
16	14	46	9	993	140.0	161029.0	-5198.0	-5688364.0
16	14	46	9	993	141.0	238708.0	-4225.0	-5687845.0
16	14	46	9	994	142.0	289801.0	-4115.0	-5688804.0
16	14	46	9	994	143.0	313058.0	-4332.0	-5689744.0
16	14	46	9	994	144.0	302006.0	-4019.0	-5689103.0
16	14	46	9	995	145.0	275654.0	-3553.0	-5688524.0
16	14	46	9	995	146.0	252706.0	-3609.0	-5687875.0
16	14	46	9	995	147.0	230842.0	-4266.0	-5688769.0
16	14	46	9	996	148.0	209609.0	-4594.0	-5689672.0
16	14	46	9	996	149.0	191813.0	-5063.0	-5689182.0
16	14	46	9	996	150.0	166490.0	-4949.0	-5688502.0
16	14	46	9	996	151.0	137810.0	-5184.0	-5689034.0
16	14	46	9	997	152.0	109654.0	-5365.0	-5690349.0
16	14	46	9	997	153.0	78590.0	-5284.0	-5689939.0
16	14	46	9	997	155.0	24491.0	-4635.0	-5689369.0
16	14	46	9	997	156.0	-1262.0	-5199.0	-5690694.0
16	14	46	9	998	157.0	-26109.0	-6121.0	-5690477.0
16	14	46	9	998	158.0	-60267.0	-5770.0	-5689769.0
16	14	46	9	998	159.0	-103942.0	-5608.0	-5689471.0
16	14	46	9	998	160.0	-144895.0	-5528.0	-5690802.0
16	14	46	9	999	161.0	-174229.0	-5685.0	-5690994.0
16	14	46	10	17	162.0	-187709.0	-5579.0	-5690284.0
16	14	46	10	18	163.0	-199443.0	-5093.0	-5689701.0
16	14	46	10	19	164.0	-206357.0	-4543.0	-5690485.0
16	14	46	10	19	165.0	-212123.0	-4984.0	-5691386.0
16	14	46	10	20	166.0	-208727.0	-4871.0	-5690831.0
16	14	46	10	20	167.0	-190394.0	-4642.0	-5690207.0
16	14	46	10	21	168.0	-165690.0	-4657.0	-5690091.0
16	14	46	10	22	169.0	-135994.0	-5011.0	-5691646.0
16	14	46	10	22	170.0	-118109.0	-5813.0	-5691598.0
16	14	46	10	61	171.0	-108469.0	-5887.0	-5690963.0
16	14	46	10	62	172.0	-102073.0	-6038.0	-5690521.0
16	14	46	10	83	173.0	-100141.0	-5921.0	-5691637.0
16	14	46	10	84	174.0	-106331.0	-5358.0	-5691931.0
16	14	46	10	84	175.0	-116731.0	-5022.0	-5691260.0
16	14	46	10	85	176.0	-130442.0	-5024.0	-5690666.0
16	14	46	10	86	178.0	-143466.0	-5424.0	-5691876.0
16	14	46	10	86	179.0	-134132.0	-6245.0	-5691397.0
16	14	46	10	87	180.0	-118609.0	-6614.0	-5690856.0
16	14	46	10	87	181.0	-103246.0	-6530.0	-5691770.0
16	14	46	10	88	182.0	-94727.0	-5605.0	-5692582.0
16	14	46	10	88	183.0	-85721.0	-5340.0	-5691974.0
16	14	46	10	89	184.0	-77208.0	-5327.0	-5691343.0
16	14	46	10	89	185.0	-70452.0	-5834.0	-5691092.0
16	14	46	10	90	186.0	-61905.0	-5886.0	-5692441.0
16	14	46	10	90	200.0	19748.0	-4587.0	-5693502.0
16	14	46	10	91	201.0	2824.0	-4295.0	-5692824.0
16	14	46	10	91	202.0	-13356.0	-4788.0	-5692597.0
16	14	46	10	92	203.0	-24781.0	-4427.0	-5693902.0
16	14	46	10	92	204.0	-36394.0	-3959.0	-5693953.0
16	14	46	10	93	205.0	-48739.0	-3467.0	-5693217.0
16	14	46	10	93	206.0	-61481.0	-3340.0	-5692676.0
16	14	46	10	117	207.0	-67782.0	-3138.0	-5693318.0
16	14	46	10	117	208.0	-68172.0	-2887.0	-5694140.0
16	14	46	10	118	209.0	-70204.0	-2317.0	-5693499.0
16	14	46	10	118	210.0	-74893.0	-1972.0	-5692870.0
16	14	46	10	119	211.0	-74181.0	-2166.0	-5693187.0
16	14	46	10	119	212.0	-56676.0	-1609.0	-5694314.0
16	14	46	10	120	213.0	-28336.0	-1603.0	-5693846.0
16	14	46	10	120	214.0	8326.0	-1806.0	-5693201.0
16	14	46	10	121	215.0	58578.0	-1563.0	-5692964.0
16	14	46	10	121	216.0	112279.0	-1664.0	-5694420.0
16	14	46	10	121	217.0	153493.0	-1212.0	-5694543.0
16	14	46	10	122	218.0	180056.0	-1759.0	-5693862.0
16	14	46	10	122	219.0	195458.0	-1865.0	-5693477.0
16	14	46	10	123	220.0	205030.0	-1425.0	-5694697.0
16	14	46	10	140	221.0	207853.0	-1169.0	-5694964.0
16	14	46	10	141	223.0	161726.0	-1478.0	-5693677.0
16	14	46	10	141	224.0	130391.0	-1969.0	-5694249.0
16	14	46	10	141	225.0	112638.0	-2034.0	-5695550.0
16	14	46	10	142	226.0	82077.0	-1659.0	-5695005.0
16	14	46	10	142	227.0	62966.0	-1500.0	-5694384.0
16	14	46	10	142	228.0	30907.0	-1405.0	-5693846.0
16	14	46	10	160	229.0	-34378.0	-1337.0	-5695124.0
16	14	46	10	160	230.0	-107558.0	-889.0	-5695438.0
16	14	46	10	160	231.0	-156374.0	-206.0	-5694841.0
16	14	46	10	161	232.0	-172142.0	-201.0	-5694202.0
16	14	46	10	161	233.0	-156716.0	165.0	-5695139.0
16	14	46	10	161	234.0	-124009.0	-271.0	-5695817.0
16	14	46	10	161	235.0	-85124.0	-782.0	-5695264.0
16	14	46	10	162	236.0	-47397.0	-576.0	-5694576.0
16	14	46	10	162	237.0	-19931.0	-971.0	-5695089.0
16	14	46	10	162	238.0	-12269.0	-802.0	-5696332.0
16	14	46	10	163	239.0	-18706.0	-251.0	-5695934.0
16	14	46	10	163	240.0	-34307.0	-553.0	-5695223.0
16	14	46	10	197	241.0	-55001.0	-1352.0	-5695358.0
16	14	46	10	216	242.0	-78427.0	-976.0	-5696497.0
16	14	46	10	217	243.0	-103391.0	-492.0	-5696132.0
16	14	46	10	217	245.0	-134272.0	-460.0	-5694941.0
16	14	46	10	218	246.0	-133401.0	-1176.0	-5695909.0
16	14	46	10	218	247.0	-110772.0	-1756.0	-5696504.0
16	14	46	10	219	248.0	-65138.0	-1827.0	-5695886.0
16	14	46	10	219	249.0	-15686.0	-1946.0	-5695244.0
16	14	46	10	220	250.0	26217.0	-1524.0	-5695862.0
16	14	46	10	221	251.0	58349.0	-1277.0	-5696853.0
16	14	46	10	221	252.0	81711.0	-1675.0	-5696306.0
16	14	46	10	222	253.0	104498.0	-1904.0	-5695687.0
16	14	46	10	222	254.0	133527.0	-2166.0	-5696044.0
16	14	46	10	223	255.0	163937.0	-2481.0	-5697422.0
16	14	46	10	223	0.0	197337.0	-2093.0	-5697064.0
16	14	46	10	224	12.0	-23339.0	-1314.0	-5698122.0
16	14	46	10	224	13.0	-43204.0	-1956.0	-5697490.0
16	14	46	10	225	14.0	-41997.0	-1817.0	-5696868.0
16	14	46	10	226	15.0	-37482.0	-1896.0	-5696999.0
16	14	46	10	226	16.0	-46011.0	-1793.0	-5697831.0
16	14	46	10	227	17.0	-60737.0	-1431.0	-5697343.0
16	14	46	10	245	18.0	-71246.0	-1166.0	-5696733.0
16	14	46	10	246	19.0	-62459.0	-845.0	-5697377.0
16	14	46	10	247	20.0	-35066.0	-533.0	-5698169.0
16	14	46	10	247	21.0	-2926.0	-527.0	-5697530.0
16	14	46	10	248	22.0	24921.0	-710.0	-5696940.0
16	14	46	10	248	23.0	48433.0	-1411.0	-5696897.0
16	14	46	10	265	24.0	76816.0	-1625.0	-5697918.0
16	14	46	10	266	25.0	102821.0	-1150.0	-5697510.0
16	14	46	10	266	26.0	123451.0	-719.0	-5697132.0
16	14	46	10	267	27.0	141158.0	-813.0	-5698497.0
16	14	46	10	267	28.0	165095.0	-1351.0	-5698785.0
16	14	46	10	267	29.0	197153.0	-801.0	-5698110.0
16	14	46	10	268	30.0	234001.0	-374.0	-5697484.0
16	14	46	10	268	31.0	259228.0	-355.0	-5697602.0
16	14	46	10	268	32.0	268485.0	35.0	-5698432.0
16	14	46	10	268	34.0	222614.0	81.0	-5697382.0
16	14	46	10	269	35.0	191089.0	-888.0	-5698293.0
16	14	46	10	269	36.0	149292.0	-1472.0	-5699097.0
16	14	46	10	269	37.0	99732.0	-1717.0	-5698466.0
16	14	46	10	270	38.0	55433.0	-1624.0	-5697843.0
16	14	46	10	270	39.0	14238.0	-1467.0	-5697697.0
16	14	46	10	270	40.0	-37196.0	-1155.0	-5699077.0
16	14	46	10	287	41.0	-91305.0	-1131.0	-5698833.0
16	14	46	10	288	42.0	-138846.0	-904.0	-5698214.0
16	14	46	10	302	43.0	-171582.0	-611.0	-5698234.0
16	14	46	10	303	44.0	-194971.0	-604.0	-5699125.0
16	14	46	10	303	45.0	-209214.0	54.0	-5698656.0
16	14	46	10	303	46.0	-219627.0	-547.0	-5698029.0
16	14	46	10	303	47.0	-215673.0	-662.0	-5698234.0
16	14	46	10	304	48.0	-212437.0	-272.0	-5698950.0
16	14	46	10	304	49.0	-206869.0	-96.0	-5698429.0
16	14	46	10	305	50.0	-199134.0	109.0	-5697828.0
16	14	46	10	305	51.0	-179790.0	708.0	-5698827.0
16	14	46	10	305	52.0	-162866.0	570.0	-5699499.0
16	14	46	10	305	53.0	-143392.0	467.0	-5698844.0
16	14	46	10	306	54.0	-126671.0	188.0	-5698216.0
16	14	46	10	306	55.0	-101167.0	192.0	-5698186.0
16	14	46	10	306	57.0	-89285.0	399.0	-5698526.0
16	14	46	10	307	58.0	-86165.0	-591.0	-5698249.0
16	14	46	10	307	59.0	-75745.0	-526.0	-5699542.0
16	14	46	10	307	60.0	-54688.0	-182.0	-5699515.0
16	14	46	10	308	61.0	-20346.0	-307.0	-5698841.0
16	14	46	10	308	62.0	29911.0	-23.0	-5698356.0
16	14	46	10	333	63.0	86411.0	182.0	-5699592.0
16	14	46	10	333	64.0	136578.0	228.0	-5700230.0
16	14	46	10	334	65.0	165501.0	1129.0	-5699537.0
16	14	46	10	334	66.0	193548.0	1058.0	-5698913.0
16	14	46	10	349	67.0	217112.0	1155.0	-5698694.0
16	14	46	10	349	68.0	231438.0	897.0	-5699724.0
16	14	46	10	349	69.0	229943.0	876.0	-5699381.0
16	14	46	10	350	70.0	220476.0	1162.0	-5698783.0
16	14	46	10	350	71.0	203992.0	1033.0	-5698719.0
16	14	46	10	350	72.0	193676.0	937.0	-5699679.0
16	14	46	10	351	73.0	185030.0	1275.0	-5699281.0
16	14	46	10	351	74.0	181655.0	1583.0	-5699042.0
16	14	46	10	351	75.0	172404.0	1728.0	-5700643.0
16	14	46	10	352	76.0	158636.0	1431.0	-5700736.0
16	14	46	10	352	77.0	157634.0	1599.0	-5700052.0
16	14	46	10	352	79.0	181199.0	1612.0	-5699636.0
16	14	46	10	353	80.0	177716.0	1103.0	-5700396.0
16	14	46	10	353	81.0	156828.0	301.0	-5699864.0
16	14	46	10	353	82.0	131545.0	433.0	-5699651.0
16	14	46	10	354	83.0	94299.0	835.0	-5700960.0
16	14	46	10	354	84.0	41254.0	819.0	-5700831.0
16	14	46	10	377	85.0	-21188.0	1032.0	-5700161.0
16	14	46	10	400	86.0	-57056.0	1404.0	-5699515.0
16	14	46	10	400	87.0	-69167.0	2492.0	-5699594.0
16	14	46	10	401	88.0	-74903.0	2887.0	-5700295.0
16	14	46	10	401	89.0	-77986.0	2946.0	-5699782.0
16	14	46	10	401	90.0	-93954.0	2515.0	-5699516.0
16	14	46	10	402	91.0	-119339.0	2509.0	-5700922.0
16	14	46	10	402	92.0	-131120.0	1822.0	-5700977.0
16	14	46	10	403	93.0	-118756.0	1927.0	-5700349.0
16	14	46	10	403	94.0	-102458.0	1822.0	-5699739.0
16	14	46	10	403	95.0	-90714.0	1963.0	-5700462.0
16	14	46	10	404	96.0	-94293.0	1964.0	-5701354.0
16	14	46	10	405	97.0	-101316.0	1709.0	-5700779.0
16	14	46	10	405	98.0	-123781.0	1773.0	-5700132.0
16	14	46	10	405	99.0	-156369.0	1809.0	-5700032.0
16	14	46	10	406	102.0	-232186.0	1946.0	-5700470.0
16	14	46	10	406	103.0	-239992.0	1234.0	-5699991.0
16	14	46	10	407	104.0	-237559.0	1490.0	-5701318.0
16	14	46	10	407	105.0	-224678.0	1643.0	-5701514.0
16	14	46	10	408	106.0	-198897.0	1741.0	-5700912.0
16	14	46	10	408	107.0	-168559.0	1730.0	-5700513.0
16	14	46	10	422	108.0	-153277.0	1898.0	-5701858.0
16	14	46	10	423	109.0	-127262.0	2661.0	-5701932.0
16	14	46	10	442	110.0	-104061.0	3428.0	-5701334.0
16	14	46	10	442	111.0	-66387.0	3318.0	-5700647.0
16	14	46	10	443	112.0	-46059.0	3066.0	-5701421.0
16	14	46	10	443	113.0	-27267.0	3130.0	-5702464.0
16	14	46	10	444	114.0	-15381.0	3269.0	-5701986.0
16	14	46	10	444	115.0	15359.0	3511.0	-5701241.0
16	14	46	10	444	116.0	43065.0	3409.0	-5701109.0
16	14	46	10	444	117.0	74300.0	3812.0	-5702503.0
16	14	46	10	445	118.0	102269.0	4261.0	-5702455.0
16	14	46	10	445	119.0	138866.0	4320.0	-5701756.0
16	14	46	10	445	120.0	173039.0	4247.0	-5701225.0
16	14	46	10	446	121.0	185904.0	4123.0	-5702129.0
16	14	46	10	446	122.0	197048.0	3910.0	-5702948.0
16	14	46	10	467	124.0	175188.0	4061.0	-5701795.0
16	14	46	10	482	125.0	149003.0	3418.0	-5702776.0
16	14	46	10	483	126.0	134206.0	3384.0	-5703420.0
16	14	46	10	483	127.0	102036.0	3484.0	-5702762.0
16	14	46	10	483	128.0	75951.0	3739.0	-5702104.0
16	14	46	10	484	129.0	35719.0	3629.0	-5702407.0
16	14	46	10	484	130.0	-5141.0	4243.0	-5703754.0
16	14	46	10	484	131.0	-47679.0	4696.0	-5703346.0
16	14	46	10	485	132.0	-85672.0	4052.0	-5702652.0
16	14	46	10	485	133.0	-102851.0	4031.0	-5702261.0
16	14	46	10	485	134.0	-119516.0	4178.0	-5703452.0
16	14	46	10	486	135.0	-115111.0	3969.0	-5703918.0
16	14	46	10	486	136.0	-123218.0	3901.0	-5703242.0
16	14	46	10	486	137.0	-125090.0	4274.0	-5702660.0
16	14	46	10	487	138.0	-121616.0	3872.0	-5702949.0
16	14	46	10	487	146.0	141198.0	3829.0	-5703052.0
16	14	46	10	487	147.0	155404.0	3257.0	-5703866.0
16	14	46	10	487	148.0	166828.0	3051.0	-5703847.0
16	14	46	10	488	149.0	156786.0	3237.0	-5703248.0
16	14	46	10	488	150.0	131638.0	3584.0	-5703106.0
16	14	46	10	488	151.0	94273.0	4100.0	-5704561.0
16	14	46	10	489	152.0	50533.0	3929.0	-5704306.0
16	14	46	10	512	153.0	23903.0	3701.0	-5703719.0
16	14	46	10	533	154.0	3799.0	3763.0	-5703312.0
16	14	46	10	533	155.0	-122.0	4264.0	-5704324.0
16	14	46	10	534	156.0	-1981.0	3977.0	-5704191.0
16	14	46	10	534	157.0	-6952.0	3490.0	-5703586.0
16	14	46	10	535	158.0	9359.0	3859.0	-5703446.0
16	14	46	10	536	159.0	20683.0	3944.0	-5704530.0
16	14	46	10	536	160.0	24958.0	3757.0	-5704177.0
16	14	46	10	537	161.0	37560.0	3759.0	-5703616.0
16	14	46	10	537	162.0	23607.0	4119.0	-5704379.0
16	14	46	10	538	163.0	12344.0	4739.0	-5705358.0
16	14	46	10	538	164.0	-8741.0	4809.0	-5704703.0
16	14	46	10	539	165.0	-37878.0	4314.0	-5704089.0
16	14	46	10	539	166.0	-60367.0	4146.0	-5703712.0
16	14	46	10	540	167.0	-82280.0	4220.0	-5704633.0
16	14	46	10	540	169.0	-101099.0	4828.0	-5703785.0
16	14	46	10	541	170.0	-101762.0	4784.0	-5703746.0
16	14	46	10	542	171.0	-84570.0	4490.0	-5705199.0
16	14	46	10	542	172.0	-67732.0	4299.0	-5704899.0
16	14	46	10	543	173.0	-44020.0	4228.0	-5704317.0
16	14	46	10	543	174.0	-39969.0	4610.0	-5704334.0
16	14	46	10	563	175.0	-34837.0	4364.0	-5705929.0
16	14	46	10	563	176.0	-26185.0	4673.0	-5705631.0
16	14	46	10	564	177.0	-13724.0	5461.0	-5705027.0
16	14	46	10	564	178.0	24129.0	5371.0	-5704410.0
16	14	46	10	566	179.0	73861.0	5539.0	-5705434.0
16	14	46	10	566	180.0	140773.0	5155.0	-5706010.0
16	14	46	10	567	181.0	188040.0	4739.0	-5705427.0
16	14	46	10	567	182.0	214343.0	4431.0	-5704734.0
16	14	46	10	568	183.0	238780.0	4153.0	-5704872.0
16	14	46	10	568	184.0	246838.0	3347.0	-5706133.0
16	14	46	10	569	185.0	259621.0	3752.0	-5705806.0
16	14	46	10	570	186.0	256731.0	4125.0	-5705111.0
16	14	46	10	572	187.0	253351.0	3738.0	-5705314.0
16	14	46	10	572	188.0	238715.0	3993.0	-5706659.0
16	14	46	10	573	189.0	209429.0	4184.0	-5706343.0
16	14	46	10	573	191.0	157618.0	3568.0	-5705322.0
16	14	46	10	574	192.0	140277.0	3268.0	-5706534.0
16	14	46	10	574	193.0	132838.0	2166.0	-5706659.0
16	14	46	10	575	194.0	134650.0	2116.0	-5706001.0
16	14	46	10	587	195.0	138923.0	2019.0	-5705392.0
16	14	46	10	588	196.0	136083.0	1954.0	-5706311.0
16	14	46	10	588	197.0	134991.0	2394.0	-5707063.0
16	14	46	10	607	198.0	122664.0	2601.0	-5706496.0
16	14	46	10	607	199.0	100459.0	2729.0	-5705816.0
16	14	46	10	608	200.0	85182.0	3759.0	-5705888.0
16	14	46	10	608	201.0	65912.0	3686.0	-5707291.0
16	14	46	10	608	202.0	50638.0	3616.0	-5707059.0
16	14	46	10	609	203.0	63459.0	3364.0	-5706387.0
16	14	46	10	609	204.0	80698.0	3048.0	-5706397.0
16	14	46	10	609	205.0	97605.0	2662.0	-5707614.0
16	14	46	10	610	206.0	102018.0	2979.0	-5707354.0
16	14	46	10	610	207.0	77144.0	3223.0	-5706626.0
16	14	46	10	625	208.0	50809.0	3276.0	-5706287.0
16	14	46	10	625	209.0	8776.0	3768.0	-5707562.0
16	14	46	10	625	210.0	-32626.0	3146.0	-5707898.0
16	14	46	10	626	211.0	-62189.0	2696.0	-5707142.0
16	14	46	10	626	212.0	-91999.0	3108.0	-5706567.0
16	14	46	10	626	214.0	-95552.0	3286.0	-5707671.0
16	14	46	10	627	215.0	-91116.0	2329.0	-5707050.0
16	14	46	10	627	216.0	-74791.0	1941.0	-5706431.0
16	14	46	10	627	217.0	-70592.0	1997.0	-5706711.0
16	14	46	10	628	218.0	-63392.0	2089.0	-5707831.0
16	14	46	10	628	219.0	-55914.0	2088.0	-5707357.0
16	14	46	10	647	220.0	-108948.0	2213.0	-5706768.0
16	14	46	10	666	221.0	-252457.0	2493.0	-5706518.0
16	14	46	10	666	222.0	-465176.0	3016.0	-5707990.0
16	14	46	10	666	223.0	-642454.0	2966.0	-5707842.0
16	14	46	10	667	224.0	-733281.0	2441.0	-5707189.0
16	14	46	10	667	225.0	-711516.0	2531.0	-5706646.0
16	14	46	10	667	226.0	-572144.0	2557.0	-5707830.0
16	14	46	10	668	227.0	-413074.0	2338.0	-5708381.0
16	14	46	10	668	228.0	-267526.0	2337.0	-5707745.0
16	14	46	10	668	229.0	-119246.0	2444.0	-5707134.0
16	14	46	10	668	230.0	26428.0	2544.0	-5707216.0
16	14	46	10	669	231.0	178966.0	2693.0	-5707965.0
16	14	46	10	669	232.0	294897.0	2436.0	-5707456.0
16	14	46	10	669	233.0	358084.0	1967.0	-5706845.0
16	14	46	10	670	234.0	384402.0	2261.0	-5707227.0
16	14	46	10	670	236.0	381534.0	2099.0	-5707432.0
16	14	46	10	670	237.0	342583.0	2224.0	-5707242.0
16	14	46	10	670	238.0	289644.0	1821.0	-5708756.0
16	14	46	10	671	239.0	260311.0	1648.0	-5708655.0
16	14	46	10	671	240.0	248294.0	1972.0	-5708037.0
16	14	46	10	671	241.0	243988.0	2059.0	-5707427.0
16	14	46	10	672	242.0	206882.0	1720.0	-5707862.0
16	14	46	10	692	243.0	152519.0	2021.0	-5708372.0
16	14	46	10	692	244.0	113399.0	2743.0	-5707805.0
16	14	46	10	703	245.0	111830.0	3310.0	-5707552.0
16	14	46	10	703	246.0	153055.0	3277.0	-5709061.0
16	14	46	10	703	247.0	212883.0	3141.0	-5709136.0
16	14	46	10	704	248.0	282735.0	2978.0	-5708487.0
16	14	46	10	704	249.0	323098.0	2409.0	-5707854.0
16	14	46	10	705	250.0	367989.0	2638.0	-5708197.0
16	14	46	10	705	251.0	397503.0	2855.0	-5708846.0
16	14	46	10	705	252.0	406828.0	3259.0	-5708322.0
16	14	46	10	705	253.0	388366.0	2755.0	-5708141.0
16	14	46	10	706	254.0	334951.0	2933.0	-5709615.0
16	14	46	10	706	255.0	271799.0	2986.0	-5709508.0
16	14	46	10	706	0.0	186279.0	2369.0	-5708864.0
16	14	46	10	707	1.0	139359.0	2345.0	-5708250.0
16	14	46	10	707	3.0	112016.0	2883.0	-5709234.0
16	14	46	10	707	4.0	127966.0	2131.0	-5708675.0
16	14	46	10	707	5.0	130773.0	1588.0	-5708110.0
16	14	46	10	708	6.0	111191.0	1694.0	-5708676.0
16	14	46	10	721	7.0	52424.0	1446.0	-5708942.0
16	14	46	10	721	8.0	-182.0	1631.0	-5708351.0
16	14	46	10	740	9.0	-67876.0	1381.0	-5708672.0
16	14	46	10	741	10.0	-102594.0	1561.0	-5709894.0
16	14	46	10	741	11.0	-138018.0	2548.0	-5709424.0
16	14	46	10	741	12.0	-160630.0	2444.0	-5708867.0
16	14	46	10	782	13.0	-181550.0	2599.0	-5708612.0
16	14	46	10	782	14.0	-197139.0	2920.0	-5709946.0
16	14	46	10	783	15.0	-197227.0	2271.0	-5709788.0
16	14	46	10	804	16.0	-209096.0	1999.0	-5709131.0
16	14	46	10	805	17.0	-187674.0	1624.0	-5708707.0
16	14	46	10	806	18.0	-172566.0	1693.0	-5709911.0
16	14	46	10	806	19.0	-135652.0	1885.0	-5710119.0
16	14	46	10	807	20.0	-109031.0	1943.0	-5709453.0
16	14	46	10	808	21.0	-73586.0	1866.0	-5708819.0
16	14	46	10	808	22.0	-42327.0	1834.0	-5708812.0
16	14	46	10	809	23.0	667.0	2304.0	-5710319.0
16	14	46	10	809	25.0	92094.0	3004.0	-5709404.0
16	14	46	10	810	26.0	138053.0	2646.0	-5709087.0
16	14	46	10	810	27.0	173116.0	1956.0	-5710661.0
16	14	46	10	811	28.0	212134.0	2989.0	-5710713.0
16	14	46	10	812	48.0	-125804.0	3806.0	-5711223.0
16	14	46	10	812	49.0	-83181.0	3318.0	-5711913.0
16	14	46	10	813	50.0	-38275.0	3573.0	-5711249.0
16	14	46	10	813	51.0	-1934.0	4230.0	-5710583.0
16	14	46	10	814	52.0	25650.0	5058.0	-5710607.0
16	14	46	10	814	53.0	21767.0	5899.0	-5712006.0
16	14	46	10	839	54.0	16574.0	6276.0	-5711724.0
16	14	46	10	839	55.0	-11483.0	6999.0	-5711066.0
16	14	46	10	840	56.0	-37764.0	8077.0	-5710635.0
16	14	46	10	840	57.0	-75071.0	8432.0	-5711970.0
16	14	46	10	841	58.0	-105745.0	9359.0	-5712451.0
16	14	46	10	841	59.0	-133272.0	10364.0	-5711815.0
16	14	46	10	842	60.0	-164095.0	11019.0	-5711162.0
16	14	46	10	842	61.0	-175144.0	11928.0	-5711321.0
16	14	46	10	843	62.0	-193361.0	12800.0	-5711975.0
16	14	46	10	843	63.0	-183572.0	13192.0	-5711454.0
16	14	46	10	844	64.0	-153456.0	14111.0	-5710980.0
16	14	46	10	844	65.0	-103990.0	14954.0	-5712118.0
16	14	46	10	845	66.0	-40154.0	15621.0	-5712484.0
16	14	46	10	845	67.0	16178.0	15638.0	-5711786.0
16	14	46	10	846	68.0	79664.0	16414.0	-5711209.0
16	14	46	10	846	70.0	147356.0	17563.0	-5712852.0
16	14	46	10	847	71.0	155698.0	17887.0	-5712299.0
16	14	46	10	847	72.0	158474.0	17891.0	-5711702.0
16	14	46	10	848	73.0	161314.0	18317.0	-5711332.0
16	14	46	10	866	74.0	142856.0	18577.0	-5712235.0
16	14	46	10	867	75.0	125811.0	19127.0	-5711984.0
16	14	46	10	867	76.0	90775.0	19371.0	-5711412.0
16	14	46	10	887	77.0	50603.0	19753.0	-5711946.0
16	14	46	10	887	78.0	8943.0	20583.0	-5713168.0
16	14	46	10	888	79.0	-31802.0	21603.0	-5712595.0
16	14	46	10	888	80.0	-58354.0	22065.0	-5711977.0
16	14	46	10	888	81.0	-72270.0	22029.0	-5711739.0
16	14	46	10	889	82.0	-77342.0	21552.0	-5713262.0
16	14	46	10	889	83.0	-67256.0	21261.0	-5713104.0
16	14	46	10	889	84.0	-43371.0	21318.0	-5712511.0
16	14	46	10	890	85.0	-6189.0	21506.0	-5711829.0
16	14	46	10	890	86.0	13458.0	20798.0	-5712518.0
16	14	46	10	890	87.0	34804.0	20748.0	-5713242.0
16	14	46	10	891	88.0	51842.0	20679.0	-5712721.0
16	14	46	10	891	89.0	94476.0	20273.0	-5712055.0
16	14	46	10	891	90.0	137262.0	20125.0	-5712684.0
16	14	46	10	891	91.0	189419.0	20446.0	-5713825.0
16	14	46	10	892	93.0	323064.0	18568.0	-5712666.0
16	14	46	10	892	94.0	368193.0	17327.0	-5712777.0
16	14	46	10	892	95.0	387081.0	16684.0	-5714349.0
16	14	46	10	893	96.0	386743.0	16231.0	-5714171.0
16	14	46	10	893	97.0	361251.0	15718.0	-5713489.0
16	14	46	10	893	98.0	313208.0	15545.0	-5713081.0
16	14	46	10	916	99.0	261036.0	15288.0	-5714196.0
16	14	46	10	962	100.0	191149.0	14673.0	-5714541.0
16	14	46	11	9	101.0	113009.0	15103.0	-5713853.0
16	14	46	11	9	102.0	34728.0	15094.0	-5713226.0
16	14	46	11	21	103.0	-35701.0	14467.0	-5713725.0
16	14	46	11	22	104.0	-99701.0	13553.0	-5714770.0
16	14	46	11	23	105.0	-154941.0	13116.0	-5714255.0
16	14	46	11	23	106.0	-202505.0	12354.0	-5713592.0
16	14	46	11	24	107.0	-251099.0	11140.0	-5713840.0
16	14	46	11	25	108.0	-288741.0	10441.0	-5715013.0
16	14	46	11	26	109.0	-319324.0	10157.0	-5714592.0
16	14	46	11	27	110.0	-336572.0	9467.0	-5713887.0
16	14	46	11	28	111.0	-342859.0	9023.0	-5713687.0
16	14	46	11	28	112.0	-333046.0	8223.0	-5715111.0
16	14	46	11	29	113.0	-312526.0	7418.0	-5715187.0
16	14	46	11	29	115.0	-227742.0	5756.0	-5713926.0
16	14	46	11	30	138.0	83835.0	-1954.0	-5715251.0
16	14	46	11	30	160.0	235829.0	-4937.0	-5715064.0
16	14	46	11	31	161.0	196855.0	-4821.0	-5716260.0
16	14	46	11	31	162.0	135172.0	-4618.0	-5715769.0
16	14	46	11	31	163.0	75601.0	-4250.0	-5715099.0
16	14	46	11	32	164.0	10597.0	-3642.0	-5714521.0
16	14	46	11	32	165.0	-50132.0	-3972.0	-5715547.0
16	14	46	11	52	166.0	-110233.0	-3762.0	-5716215.0
16	14	46	11	53	167.0	-164226.0	-3479.0	-5715611.0
16	14	46	11	53	168.0	-214202.0	-2537.0	-5714981.0
16	14	46	11	68	169.0	-262952.0	-2195.0	-5715142.0
16	14	46	11	69	170.0	-295539.0	-2810.0	-5715549.0
16	14	46	11	69	171.0	-331827.0	-2868.0	-5715009.0
16	14	46	11	69	172.0	-350255.0	-2987.0	-5714794.0
16	14	46	11	70	173.0	-346457.0	-3251.0	-5716224.0
16	14	46	11	70	174.0	-319801.0	-3493.0	-5716093.0
16	14	46	11	70	175.0	-278871.0	-3104.0	-5715486.0
16	14	46	11	71	176.0	-227093.0	-3509.0	-5714910.0
16	14	46	11	71	177.0	-161170.0	-3151.0	-5715762.0
16	14	46	11	71	178.0	-102346.0	-3528.0	-5716261.0
16	14	46	11	71	179.0	-51126.0	-4229.0	-5715636.0
16	14	46	11	72	180.0	-30011.0	-4277.0	-5715181.0
16	14	46	11	72	182.0	2353.0	-4586.0	-5716735.0
16	14	46	11	72	183.0	35878.0	-4601.0	-5716132.0
16	14	46	11	73	184.0	84263.0	-4852.0	-5715509.0
16	14	46	11	73	185.0	116674.0	-4914.0	-5715940.0
16	14	46	11	73	186.0	153038.0	-5310.0	-5716736.0
16	14	46	11	73	187.0	186504.0	-5382.0	-5716264.0
16	14	46	11	74	188.0	217277.0	-5142.0	-5716196.0
16	14	46	11	99	189.0	241623.0	-5322.0	-5717767.0
16	14	46	11	99	190.0	251212.0	-5349.0	-5717568.0
16	14	46	11	118	191.0	248049.0	-4061.0	-5716926.0
16	14	46	11	118	192.0	224854.0	-3907.0	-5716296.0
16	14	46	11	119	193.0	198689.0	-4202.0	-5717056.0
16	14	46	11	119	194.0	156078.0	-4539.0	-5718210.0
16	14	46	11	120	195.0	125938.0	-4504.0	-5717617.0
16	14	46	11	120	196.0	90489.0	-4652.0	-5716979.0
16	14	46	11	121	197.0	61579.0	-4275.0	-5716609.0
16	14	46	11	121	198.0	36931.0	-4274.0	-5718046.0
16	14	46	11	122	199.0	12443.0	-5029.0	-5718141.0
16	14	46	11	123	200.0	-18092.0	-5156.0	-5717537.0
16	14	46	11	123	201.0	-51672.0	-4595.0	-5716924.0
16	14	46	11	124	202.0	-60674.0	-4204.0	-5717740.0
16	14	46	11	124	203.0	-60548.0	-4572.0	-5718370.0
16	14	46	11	125	205.0	-20002.0	-4494.0	-5717174.0
16	14	46	11	126	206.0	18971.0	-4966.0	-5718179.0
16	14	46	11	126	207.0	63091.0	-5522.0	-5718939.0
16	14	46	11	127	208.0	95552.0	-5517.0	-5718404.0
16	14	46	11	127	209.0	127916.0	-5229.0	-5717712.0
16	14	46	11	128	210.0	140722.0	-5424.0	-5718251.0
16	14	46	11	145	211.0	158138.0	-4972.0	-5719202.0
16	14	46	11	145	212.0	152899.0	-4906.0	-5718754.0
16	14	46	11	146	213.0	146273.0	-4551.0	-5718038.0
16	14	46	11	167	214.0	130554.0	-4471.0	-5717643.0
16	14	46	11	167	215.0	104880.0	-4316.0	-5718759.0
16	14	46	11	168	216.0	94911.0	-3406.0	-5719022.0
16	14	46	11	168	217.0	75906.0	-3242.0	-5718294.0
16	14	46	11	168	218.0	65158.0	-3628.0	-5718102.0
16	14	46	11	168	219.0	50196.0	-3618.0	-5719587.0
16	14	46	11	169	220.0	44533.0	-3823.0	-5719726.0
16	14	46	11	169	221.0	32581.0	-3742.0	-5718999.0
16	14	46	11	186	222.0	17538.0	-3591.0	-5718431.0
16	14	46	11	187	223.0	14489.0	-3432.0	-5719184.0
16	14	46	11	188	224.0	133.0	-3235.0	-5720168.0
16	14	46	11	188	225.0	-8431.0	-3021.0	-5719554.0
16	14	46	11	188	227.0	-22851.0	-2839.0	-5718715.0
16	14	46	11	189	228.0	-14360.0	-3201.0	-5720008.0
16	14	46	11	204	229.0	-14978.0	-3651.0	-5719791.0
16	14	46	11	204	230.0	-3551.0	-3517.0	-5719135.0
16	14	46	11	204	231.0	6511.0	-2823.0	-5718761.0
16	14	46	11	205	232.0	1506.0	-1717.0	-5719859.0
16	14	46	11	205	233.0	-5736.0	-1627.0	-5719904.0
16	14	46	11	205	234.0	-9474.0	-1307.0	-5719247.0
16	14	46	11	205	235.0	-16239.0	-1276.0	-5718709.0
16	14	46	11	206	236.0	-35636.0	-1387.0	-5719456.0
16	14	46	11	206	237.0	-62711.0	-2124.0	-5720099.0
16	14	46	11	206	250.0	26734.0	-532.0	-5719954.0
16	14	46	11	206	251.0	7340.0	-1422.0	-5719367.0
16	14	46	11	207	252.0	-9177.0	-1177.0	-5719349.0
16	14	46	11	207	253.0	-23356.0	-902.0	-5720129.0
16	14	46	11	207	254.0	-33727.0	-1376.0	-5719672.0
16	14	46	11	207	255.0	-44047.0	-2169.0	-5719428.0
16	14	46	11	233	0.0	-54006.0	-1639.0	-5720799.0
16	14	46	11	233	1.0	-72466.0	-1570.0	-5720823.0
16	14	46	11	233	2.0	-102702.0	-1049.0	-5720113.0
16	14	46	11	234	3.0	-130991.0	-929.0	-5719482.0
16	14	46	11	251	4.0	-147747.0	-1052.0	-5720052.0
16	14	46	11	251	5.0	-150490.0	-877.0	-5721102.0
16	14	46	11	251	6.0	-134171.0	-1116.0	-5720502.0
16	14	46	11	251	7.0	-102164.0	-1355.0	-5719903.0
16	14	46	11	252	8.0	-64031.0	-1162.0	-5719522.0
16	14	46	11	252	9.0	-33598.0	-1354.0	-5720394.0
16	14	46	11	252	10.0	-5089.0	-1297.0	-5720141.0
16	14	46	11	253	11.0	31476.0	-1292.0	-5719759.0
16	14	46	11	253	12.0	64401.0	-1465.0	-5721051.0
16	14	46	11	253	13.0	102899.0	-1670.0	-5721536.0
16	14	46	11	253	14.0	127082.0	-1676.0	-5720871.0
16	14	46	11	254	16.0	102975.0	-2003.0	-5720121.0
16	14	46	11	254	17.0	85401.0	-2427.0	-5721072.0
16	14	46	11	254	18.0	83233.0	-2472.0	-5720684.0
16	14	46	11	255	19.0	81633.0	-1882.0	-5720049.0
16	14	46	11	255	20.0	69676.0	-1775.0	-5720782.0
16	14	46	11	256	21.0	56322.0	-1463.0	-5721714.0
16	14	46	11	256	22.0	37235.0	-1402.0	-5721089.0
16	14	46	11	277	23.0	17988.0	-1032.0	-5720470.0
16	14	46	11	278	24.0	2971.0	-601.0	-5720314.0
16	14	46	11	299	25.0	12820.0	-93.0	-5721052.0
16	14	46	11	300	26.0	29423.0	-162.0	-5720602.0
16	14	46	11	300	27.0	42298.0	-47.0	-5720157.0
16	14	46	11	300	28.0	47301.0	-22.0	-5721297.0
16	14	46	11	300	29.0	45044.0	-511.0	-5721647.0
16	14	46	11	301	30.0	38335.0	-945.0	-5720994.0
16	14	46	11	301	31.0	36101.0	-890.0	-5720368.0
16	14	46	11	301	32.0	25686.0	-1432.0	-5720407.0
16	14	46	11	302	33.0	10178.0	-1490.0	-5721335.0
16	14	46	11	302	34.0	-356.0	-1282.0	-5720892.0
16	14	46	11	302	35.0	-4755.0	-880.0	-5720238.0
16	14	46	11	302	36.0	-13707.0	-561.0	-5720475.0
16	14	46	11	303	37.0	-27691.0	-357.0	-5721561.0
16	14	46	11	303	39.0	-19972.0	-734.0	-5720751.0
16	14	46	11	303	40.0	14241.0	-1391.0	-5722121.0
16	14	46	11	303	41.0	71881.0	-1446.0	-5722250.0
16	14	46	11	304	42.0	124948.0	-1254.0	-5721584.0
16	14	46	11	304	43.0	156983.0	-1671.0	-5721214.0
16	14	46	11	304	44.0	175772.0	-1691.0	-5722363.0
16	14	46	11	321	45.0	183350.0	-842.0	-5722544.0
16	14	46	11	322	46.0	181885.0	-644.0	-5721872.0
16	14	46	11	322	47.0	183063.0	-23.0	-5721232.0
16	14	46	11	338	48.0	178011.0	178.0	-5721409.0
16	14	46	11	338	49.0	165306.0	139.0	-5722343.0
16	14	46	11	338	50.0	141203.0	162.0	-5721857.0
16	14	46	11	338	51.0	106442.0	-268.0	-5721304.0
16	14	46	11	339	52.0	69857.0	-226.0	-5722210.0
16	14	46	11	339	53.0	38498.0	-743.0	-5722811.0
16	14	46	11	339	54.0	16549.0	-516.0	-5722171.0
16	14	46	11	339	55.0	-4613.0	-107.0	-5721581.0
16	14	46	11	340	56.0	-31250.0	-269.0	-5721487.0
16	14	46	11	340	57.0	-64357.0	-210.0	-5722406.0
16	14	46	11	340	58.0	-92331.0	-211.0	-5721966.0
16	14	46	11	340	59.0	-114375.0	-82.0	-5721592.0
16	14	46	11	341	61.0	-139892.0	-64.0	-5723251.0
16	14	46	11	341	62.0	-132356.0	-847.0	-5722591.0
16	14	46	11	341	63.0	-116329.0	-1412.0	-5722006.0
16	14	46	11	341	64.0	-83061.0	-954.0	-5722297.0
16	14	46	11	342	65.0	-53474.0	-523.0	-5723711.0
16	14	46	11	342	66.0	-28510.0	-423.0	-5723281.0
16	14	46	11	342	67.0	-10995.0	-12.0	-5722637.0
16	14	46	11	367	68.0	-9234.0	74.0	-5722108.0
16	14	46	11	367	69.0	-18540.0	230.0	-5723528.0
16	14	46	11	367	70.0	-35371.0	1066.0	-5723931.0
16	14	46	11	384	71.0	-58788.0	783.0	-5723346.0
16	14	46	11	385	72.0	-81510.0	24.0	-5722666.0
16	14	46	11	385	73.0	-96015.0	164.0	-5723377.0
16	14	46	11	385	74.0	-106411.0	411.0	-5724312.0
16	14	46	11	385	75.0	-108414.0	151.0	-5723832.0
16	14	46	11	386	76.0	-95804.0	176.0	-5723161.0
16	14	46	11	386	77.0	-81507.0	149.0	-5723614.0
16	14	46	11	386	78.0	-61133.0	98.0	-5724749.0
16	14	46	11	386	79.0	-38477.0	204.0	-5724330.0
16	14	46	11	387	80.0	-18179.0	373.0	-5723599.0
16	14	46	11	387	81.0	-29.0	571.0	-5723503.0
16	14	46	11	387	82.0	11789.0	759.0	-5725014.0
16	14	46	11	388	84.0	22236.0	559.0	-5724284.0
16	14	46	11	388	85.0	15569.0	190.0	-5723651.0
16	14	46	11	388	86.0	8041.0	198.0	-5723969.0
16	14	46	11	388	87.0	-8784.0	532.0	-5725064.0
16	14	46	11	389	88.0	-27152.0	578.0	-5724566.0
16	14	46	11	389	89.0	-44499.0	586.0	-5723947.0
16	14	46	11	412	90.0	-60538.0	523.0	-5724428.0
16	14	46	11	412	91.0	-72007.0	384.0	-5725800.0
16	14	46	11	433	92.0	-72245.0	1280.0	-5725329.0
16	14	46	11	434	93.0	-64784.0	1690.0	-5724702.0
16	14	46	11	434	94.0	-55486.0	1733.0	-5724473.0
16	14	46	11	435	95.0	-45001.0	1295.0	-5725656.0
16	14	46	11	435	96.0	-34836.0	1286.0	-5725511.0
16	14	46	11	435	97.0	-28394.0	1330.0	-5724819.0
16	14	46	11	436	98.0	-14342.0	1169.0	-5724279.0
16	14	46	11	436	99.0	7188.0	993.0	-5725139.0
16	14	46	11	436	100.0	27035.0	959.0	-5725965.0
16	14	46	11	437	101.0	37777.0	721.0	-5725320.0
16	14	46	11	437	102.0	42057.0	823.0	-5724727.0
16	14	46	11	437	103.0	55869.0	1542.0	-5724503.0
16	14	46	11	438	104.0	68458.0	1589.0	-5725366.0
16	14	46	11	438	106.0	89381.0	1498.0	-5724649.0
16	14	46	11	438	107.0	89743.0	1224.0	-5725919.0
16	14	46	11	439	108.0	86639.0	1060.0	-5726052.0
16	14	46	11	439	109.0	64486.0	1066.0	-5725365.0
16	14	46	11	439	110.0	40145.0	1042.0	-5724865.0
16	14	46	11	439	111.0	15301.0	1032.0	-5725807.0
16	14	46	11	440	112.0	-7071.0	1219.0	-5726472.0
16	14	46	11	504	113.0	-23567.0	1184.0	-5725812.0
16	14	46	11	505	114.0	-40484.0	2045.0	-5725198.0
16	14	46	11	505	115.0	-49982.0	2488.0	-5724889.0
16	14	46	11	506	116.0	-60391.0	2438.0	-5726242.0
16	14	46	11	506	117.0	-72049.0	2678.0	-5726081.0
16	14	46	11	507	118.0	-70001.0	2713.0	-5725504.0
16	14	46	11	522	119.0	-63462.0	2629.0	-5725056.0
16	14	46	11	522	120.0	-53079.0	2308.0	-5726247.0
16	14	46	11	523	121.0	-41584.0	2136.0	-5726242.0
16	14	46	11	523	122.0	-34147.0	2244.0	-5725612.0
16	14	46	11	524	123.0	-27896.0	2924.0	-5725097.0
16	14	46	11	524	124.0	-22374.0	2976.0	-5725901.0
16	14	46	11	525	125.0	-19809.0	3169.0	-5725794.0
16	14	46	11	525	126.0	-14730.0	3531.0	-5725204.0
16	14	46	11	526	127.0	-9686.0	3244.0	-5724846.0
16	14	46	11	526	151.0	47443.0	2158.0	-5726314.0
16	14	46	11	527	152.0	71163.0	2064.0	-5727885.0
16	14	46	11	527	153.0	89593.0	1569.0	-5727566.0
16	14	46	11	528	154.0	104360.0	1703.0	-5726967.0
16	14	46	11	528	155.0	118899.0	1738.0	-5726493.0
16	14	46	11	529	156.0	136306.0	1936.0	-5727377.0
16	14	46	11	556	157.0	142955.0	1976.0	-5727272.0
16	14	46	11	557	158.0	137244.0	2710.0	-5726682.0
16	14	46	11	557	159.0	119072.0	3438.0	-5726791.0
16	14	46	11	558	160.0	104290.0	3313.0	-5728249.0
16	14	46	11	558	161.0	96651.0	3869.0	-5727854.0
16	14	46	11	558	162.0	90296.0	3535.0	-5727253.0
16	14	46	11	559	163.0	81572.0	3416.0	-5726664.0
16	14	46	11	559	164.0	59955.0	3559.0	-5727565.0
16	14	46	11	559	165.0	23346.0	3669.0	-5727736.0
16	14	46	11	560	166.0	-15959.0	3374.0	-5727135.0
16	14	46	11	560	167.0	-56152.0	3741.0	-5726670.0
16	14	46	11	560	168.0	-90096.0	3417.0	-5727559.0
16	14	46	11	580	169.0	-103399.0	2654.0	-5727354.0
16	14	46	11	580	170.0	-92182.0	2566.0	-5726836.0
16	14	46	11	580	171.0	-70757.0	2690.0	-5727606.0
16	14	46	11	581	174.0	-47812.0	3274.0	-5726991.0
16	14	46	11	581	175.0	-51171.0	2664.0	-5726624.0
16	14	46	11	581	176.0	-60257.0	2857.0	-5727649.0
16	14	46	11	601	177.0	-61787.0	3095.0	-5727444.0
16	14	46	11	601	178.0	-55113.0	3730.0	-5726858.0
16	14	46	11	602	179.0	-44694.0	3528.0	-5726886.0
16	14	46	11	602	180.0	-31509.0	4207.0	-5728262.0
16	14	46	11	602	181.0	-28296.0	4893.0	-5727826.0
16	14	46	11	602	182.0	-34392.0	5021.0	-5727221.0
16	14	46	11	602	183.0	-43294.0	5006.0	-5726814.0
16	14	46	11	603	184.0	-55275.0	5018.0	-5728239.0
16	14	46	11	603	185.0	-67525.0	4897.0	-5728314.0
16	14	46	11	603	186.0	-74563.0	4910.0	-5727704.0
16	14	46	11	603	187.0	-77222.0	4167.0	-5727261.0
16	14	46	11	603	188.0	-77344.0	4503.0	-5728629.0
16	14	46	11	604	189.0	-58528.0	4826.0	-5728841.0
16	14	46	11	604	190.0	25559.0	4496.0	-5728253.0
16	14	46	11	604	191.0	62650.0	4314.0	-5727612.0
16	14	46	11	604	196.0	110308.0	4299.0	-5727686.0
16	14	46	11	605	197.0	82341.0	4291.0	-5729021.0
16	14	46	11	619	198.0	51034.0	3760.0	-5728886.0
16	14	46	11	620	199.0	19443.0	3740.0	-5728236.0
16	14	46	11	620	200.0	-9298.0	3909.0	-5728016.0
16	14	46	11	620	201.0	-16044.0	4169.0	-5729408.0
16	14	46	11	638	202.0	-1527.0	4254.0	-5729302.0
16	14	46	11	638	203.0	36763.0	4677.0	-5728699.0
16	14	46	11	638	204.0	95235.0	5377.0	-5728172.0
16	14	46	11	639	205.0	158233.0	5381.0	-5729346.0
16	14	46	11	656	206.0	203789.0	5451.0	-5730075.0
16	14	46	11	656	207.0	230483.0	5673.0	-5729489.0
16	14	46	11	657	208.0	258758.0	5898.0	-5728806.0
16	14	46	11	657	209.0	278325.0	5452.0	-5729067.0
16	14	46	11	657	210.0	274386.0	5046.0	-5730209.0
16	14	46	11	657	211.0	248509.0	5004.0	-5729799.0
16	14	46	11	658	212.0	200419.0	4906.0	-5729050.0
16	14	46	11	658	213.0	143944.0	4719.0	-5728793.0
16	14	46	11	658	214.0	86796.0	4201.0	-5729997.0
16	14	46	11	658	215.0	23283.0	3344.0	-5730014.0
16	14	46	11	659	216.0	-40948.0	3163.0	-5729272.0
16	14	46	11	659	218.0	-151157.0	3299.0	-5729699.0
16	14	46	11	659	219.0	-169176.0	2869.0	-5730397.0
16	14	46	11	659	220.0	-166128.0	2264.0	-5729724.0
16	14	46	11	660	221.0	-158544.0	2388.0	-5729318.0
16	14	46	11	660	222.0	-139539.0	2199.0	-5730400.0
16	14	46	11	660	223.0	-121966.0	2662.0	-5730787.0
16	14	46	11	660	224.0	-121234.0	2914.0	-5730087.0
16	14	46	11	682	225.0	-124555.0	2901.0	-5729481.0
16	14	46	11	702	226.0	-120392.0	2991.0	-5729552.0
16	14	46	11	702	227.0	-114139.0	3488.0	-5730586.0
16	14	46	11	703	228.0	-88738.0	3976.0	-5730098.0
16	14	46	11	703	229.0	-49517.0	4247.0	-5729471.0
16	14	46	11	703	230.0	-7990.0	3557.0	-5729381.0
16	14	46	11	704	231.0	27585.0	3641.0	-5730781.0
16	14	46	11	704	232.0	62547.0	4324.0	-5730572.0
16	14	46	11	705	233.0	104516.0	4511.0	-5729927.0
16	14	46	11	705	234.0	140607.0	4213.0	-5729527.0
16	14	46	11	705	235.0	183377.0	3974.0	-5730866.0
16	14	46	11	705	236.0	211016.0	3659.0	-5731143.0
16	14	46	11	706	237.0	235921.0	3061.0	-5730491.0
16	14	46	11	706	238.0	258074.0	3072.0	-5729875.0
16	14	46	11	706	239.0	282310.0	2932.0	-5730141.0
16	14	46	11	707	241.0	337373.0	3096.0	-5730391.0
16	14	46	11	707	242.0	355367.0	2714.0	-5730194.0
16	14	46	11	707	243.0	305151.0	2313.0	-5731631.0
16	14	46	11	707	244.0	142068.0	2653.0	-5731557.0
16	14	46	11	708	245.0	-91964.0	3065.0	-5730859.0
16	14	46	11	708	246.0	-333054.0	3343.0	-5730194.0
16	14	46	11	727	247.0	-505317.0	3234.0	-5730446.0
16	14	46	11	727	248.0	-593377.0	3286.0	-5731841.0
16	14	46	11	744	249.0	-558833.0	3259.0	-5731409.0
16	14	46	11	744	250.0	-463882.0	3216.0	-5730794.0
16	14	46	11	744	251.0	-376004.0	2621.0	-5731015.0
16	14	46	11	745	252.0	-288370.0	2488.0	-5732343.0
16	14	46	11	745	253.0	-175391.0	2444.0	-5731902.0
16	14	46	11	745	254.0	-46039.0	2309.0	-5731277.0
16	14	46	11	746	255.0	81314.0	2269.0	-5730713.0
16	14	46	11	746	0.0	157697.0	2131.0	-5731809.0
16	14	46	11	746	1.0	169998.0	2532.0	-5732210.0
16	14	46	11	746	2.0	141648.0	2594.0	-5731629.0
16	14	46	11	747	3.0	91257.0	2583.0	-5730924.0
16	14	46	11	747	4.0	35679.0	2993.0	-5731664.0
16	14	46	11	747	5.0	-14636.0	2718.0	-5732625.0
16	14	46	11	747	7.0	-44371.0	2225.0	-5731374.0
16	14	46	11	748	8.0	-53126.0	2295.0	-5731313.0
16	14	46	11	748	9.0	-95944.0	1715.0	-5732457.0
16	14	46	11	748	10.0	-160421.0	1401.0	-5732260.0
16	14	46	11	748	11.0	-234609.0	1885.0	-5731563.0
16	14	46	11	749	12.0	-264542.0	2437.0	-5731421.0
16	14	46	11	749	13.0	-249106.0	2401.0	-5732806.0
16	14	46	11	785	14.0	-197577.0	2621.0	-5732756.0
16	14	46	11	786	15.0	-114368.0	3146.0	-5732037.0
16	14	46	11	786	16.0	-28731.0	4128.0	-5731632.0
16	14	46	11	786	17.0	54919.0	4500.0	-5732839.0
16	14	46	11	787	18.0	136346.0	4791.0	-5733244.0
16	14	46	11	787	19.0	198001.0	4716.0	-5732539.0
16	14	46	11	787	20.0	245849.0	4336.0	-5731870.0
16	14	46	11	788	21.0	251170.0	4072.0	-5732047.0
16	14	46	11	788	22.0	216733.0	3786.0	-5733125.0
16	14	46	11	788	23.0	181170.0	3758.0	-5732709.0
16	14	46	11	789	24.0	159816.0	4294.0	-5732009.0
16	14	46	11	789	25.0	162771.0	4634.0	-5732128.0
16	14	46	11	789	26.0	191943.0	4798.0	-5733347.0
16	14	46	11	790	27.0	226039.0	4983.0	-5733028.0
16	14	46	11	790	28.0	237214.0	4983.0	-5732362.0
16	14	46	11	790	30.0	192628.0	5549.0	-5733466.0
16	14	46	11	791	31.0	149366.0	4418.0	-5733387.0
16	14	46	11	791	32.0	94224.0	3871.0	-5732714.0
16	14	46	11	791	33.0	31405.0	4106.0	-5732394.0
16	14	46	11	791	34.0	-36651.0	4266.0	-5733739.0
16	14	46	11	792	35.0	-93017.0	4536.0	-5733909.0
16	14	46	11	817	36.0	-140328.0	4566.0	-5733184.0
16	14	46	11	838	37.0	-188971.0	4549.0	-5732593.0
16	14	46	11	839	38.0	-223924.0	5185.0	-5732269.0
16	14	46	11	839	39.0	-236477.0	5251.0	-5733129.0
16	14	46	11	839	40.0	-220480.0	5083.0	-5732808.0
16	14	46	11	840	41.0	-179457.0	5273.0	-5732304.0
16	14	46	11	840	42.0	-125121.0	5017.0	-5733266.0
16	14	46	11	841	43.0	-56926.0	4736.0	-5733965.0
16	14	46	11	841	44.0	26919.0	4737.0	-5733310.0
16	14	46	11	841	45.0	108124.0	4958.0	-5732805.0
16	14	46	11	842	46.0	170235.0	4794.0	-5733697.0
16	14	46	11	842	47.0	219326.0	5165.0	-5734574.0
16	14	46	11	843	48.0	261624.0	4593.0	-5733927.0
16	14	46	11	843	49.0	293969.0	4448.0	-5733335.0
16	14	46	11	843	50.0	316300.0	4944.0	-5732829.0
16	14	46	11	844	52.0	314872.0	5484.0	-5734281.0
16	14	46	11	844	53.0	294437.0	5141.0	-5733682.0
16	14	46	11	845	54.0	245029.0	3928.0	-5733182.0
16	14	46	11	845	55.0	183910.0	3564.0	-5734310.0
16	14	46	11	846	56.0	116238.0	3548.0	-5734582.0
16	14	46	11	846	57.0	40468.0	3875.0	-5733960.0
16	14	46	11	847	58.0	-18951.0	4264.0	-5733271.0
16	14	46	11	866	59.0	-79534.0	4049.0	-5733965.0
16	14	46	11	866	60.0	-114169.0	4109.0	-5734921.0
16	14	46	11	867	61.0	-138267.0	4999.0	-5734402.0
16	14	46	11	867	62.0	-152600.0	5368.0	-5733706.0
16	14	46	11	867	63.0	-159527.0	5313.0	-5733953.0
16	14	46	11	868	64.0	-163656.0	5214.0	-5735424.0
16	14	46	11	907	65.0	-164840.0	5432.0	-5735119.0
16	14	46	11	908	66.0	-158274.0	4903.0	-5734421.0
16	14	46	11	908	67.0	-134307.0	4585.0	-5733856.0
16	14	46	11	909	68.0	-108184.0	4973.0	-5734867.0
16	14	46	11	909	69.0	-76781.0	5086.0	-5735303.0
16	14	46	11	919	70.0	-41567.0	4676.0	-5734644.0
16	14	46	11	920	71.0	-7474.0	4924.0	-5733958.0
16	14	46	11	920	72.0	15306.0	5298.0	-5734583.0
16	14	46	11	920	73.0	19771.0	5782.0	-5735499.0
16	14	46	11	921	75.0	43131.0	6059.0	-5734369.0
16	14	46	11	921	76.0	56404.0	5392.0	-5735319.0
16	14	46	11	922	77.0	74689.0	5656.0	-5736040.0
16	14	46	11	922	78.0	77160.0	7245.0	-5735445.0
16	14	46	11	923	79.0	84276.0	7934.0	-5734731.0
16	14	46	11	923	80.0	90473.0	8418.0	-5734513.0
16	14	46	11	924	97.0	-4706.0	19653.0	-5735107.0
16	14	46	11	924	98.0	-7016.0	19332.0	-5736303.0
16	14	46	11	924	99.0	-15552.0	19443.0	-5736450.0
16	14	46	11	925	100.0	-31150.0	19529.0	-5735799.0
16	14	46	11	925	101.0	-45494.0	19820.0	-5735166.0
16	14	46	11	945	102.0	-52363.0	19979.0	-5735484.0
16	14	46	11	946	103.0	-58301.0	20078.0	-5736081.0
16	14	46	11	966	104.0	-63831.0	20423.0	-5735552.0
16	14	46	11	966	105.0	-50175.0	20501.0	-5735258.0
16	14	46	11	966	106.0	-36337.0	21081.0	-5736652.0
16	14	46	11	967	107.0	-24384.0	21659.0	-5736654.0
16	14	46	11	967	108.0	-15600.0	21905.0	-5736044.0
16	14	46	11	967	109.0	-14564.0	21364.0	-5735444.0
16	14	46	11	968	110.0	-2307.0	21013.0	-5735956.0
16	14	46	11	968	111.0	20060.0	21008.0	-5736368.0
16	14	46	11	968	112.0	27893.0	19922.0	-5735787.0
16	14	46	11	968	113.0	32767.0	20345.0	-5735743.0
16	14	46	11	969	114.0	28147.0	19784.0	-5737028.0
16	14	46	11	969	115.0	17358.0	19456.0	-5736654.0
16	14	46	11	969	116.0	23654.0	19708.0	-5736024.0
16	14	46	11	969	117.0	29338.0	19184.0	-5735407.0
16	14	46	11	970	118.0	26970.0	18576.0	-5735847.0
16	14	46	11	970	120.0	23616.0	17011.0	-5735831.0
16	14	46	11	970	121.0	9965.0	15374.0	-5735501.0
16	14	46	11	970	122.0	-9107.0	14679.0	-5736942.0
16	14	46	11	970	123.0	-33591.0	14299.0	-5736931.0
16	14	46	11	971	124.0	-55159.0	13484.0	-5736261.0
16	14	46	11	971	125.0	-64590.0	13339.0	-5735949.0
16	14	46	11	997	126.0	-72130.0	13318.0	-5737375.0
16	14	46	12	21	127.0	-76757.0	12843.0	-5737392.0
16	14	46	12	21	128.0	-75310.0	12602.0	-5736774.0
16	14	46	12	22	129.0	-70544.0	12179.0	-5736149.0
16	14	46	12	23	130.0	-65900.0	11551.0	-5736655.0
16	14	46	12	23	131.0	-49681.0	11074.0	-5737782.0
16	14	46	12	24	132.0	-27484.0	10374.0	-5737226.0
16	14	46	12	25	133.0	-2534.0	9504.0	-5736601.0
16	14	46	12	25	134.0	27098.0	8988.0	-5736252.0
16	14	46	12	26	135.0	55976.0	8960.0	-5737619.0
16	14	46	12	26	136.0	83537.0	8091.0	-5737551.0
16	14	46	12	27	137.0	112673.0	7183.0	-5736948.0
16	14	46	12	27	138.0	154793.0	6763.0	-5736577.0
16	14	46	12	28	139.0	185039.0	6423.0	-5737879.0
16	14	46	12	28	140.0	189918.0	6256.0	-5737808.0
16	14	46	12	29	142.0	150294.0	5181.0	-5736569.0
16	14	46	12	29	143.0	104551.0	3581.0	-5737636.0
16	14	46	12	30	144.0	61861.0	2597.0	-5738209.0
16	14	46	12	30	145.0	11533.0	2301.0	-5737626.0
16	14	46	12	31	146.0	-45266.0	2094.0	-5736874.0
16	14	46	12	31	147.0	-101415.0	1658.0	-5736933.0
16	14	46	12	32	148.0	-169890.0	1417.0	-5738373.0
16	14	46	12	51	149.0	-254256.0	1226.0	-5738143.0
16	14	46	12	51	150.0	-365989.0	994.0	-5737445.0
16	14	46	12	52	151.0	-487154.0	1012.0	-5736960.0
16	14	46	12	53	152.0	-494123.0	-222.0	-5738009.0
16	14	46	12	53	153.0	-328552.0	-1009.0	-5738539.0
16	14	46	12	54	154.0	-29206.0	-1487.0	-5737902.0
16	14	46	12	54	155.0	268684.0	-1691.0	-5737359.0
16	14	46	12	55	156.0	432254.0	-2053.0	-5738177.0
16	14	46	12	55	157.0	472778.0	-2154.0	-5739124.0
16	14	46	12	56	158.0	456274.0	-1846.0	-5738526.0
16	14	46	12	56	159.0	370764.0	-2016.0	-5737874.0
16	14	46	12	56	160.0	238546.0	-2107.0	-5737879.0
16	14	46	12	57	161.0	89221.0	-2343.0	-5739306.0
16	14	46	12	57	162.0	-79783.0	-2495.0	-5739008.0
16	14	46	12	57	163.0	-255446.0	-2634.0	-5738257.0
16	14	46	12	76	165.0	-587614.0	-3314.0	-5738685.0
16	14	46	12	76	166.0	-699664.0	-3911.0	-5739147.0
16	14	46	12	77	167.0	-720020.0	-3396.0	-5738492.0
16	14	46	12	77	168.0	-629354.0	-2910.0	-5737940.0
16	14	46	12	77	169.0	-458576.0	-3374.0	-5738519.0
16	14	46	12	78	170.0	-279754.0	-3414.0	-5739539.0
16	14	46	12	95	171.0	-137102.0	-3686.0	-5738950.0
16	14	46	12	96	172.0	-49707.0	-3252.0	-5738351.0
16	14	46	12	96	173.0	-901.0	-3044.0	-5738686.0
16	14	46	12	97	174.0	30559.0	-3798.0	-5739895.0
16	14	46	12	97	175.0	57778.0	-4067.0	-5739352.0
16	14	46	12	97	176.0	90985.0	-3991.0	-5738758.0
16	14	46	12	98	177.0	137119.0	-3681.0	-5738303.0
16	14	46	12	98	178.0	195183.0	-3787.0	-5739143.0
16	14	46	12	98	179.0	254781.0	-4068.0	-5738877.0
16	14	46	12	99	180.0	286261.0	-4095.0	-5738284.0
16	14	46	12	99	181.0	295519.0	-4196.0	-5737789.0
16	14	46	12	99	182.0	305367.0	-3867.0	-5738622.0
16	14	46	12	99	183.0	315267.0	-4147.0	-5738525.0
16	14	46	12	100	184.0	316593.0	-4095.0	-5738083.0
16	14	46	12	100	185.0	307968.0	-4095.0	-5739109.0
16	14	46	12	114	187.0	281369.0	-3782.0	-5738957.0
16	14	46	12	114	188.0	257723.0	-4411.0	-5738357.0
16	14	46	12	115	189.0	228118.0	-4705.0	-5738543.0
16	14	46	12	115	190.0	196061.0	-4333.0	-5739604.0
16	14	46	12	115	191.0	174183.0	-4181.0	-5739044.0
16	14	46	12	116	192.0	151884.0	-4197.0	-5738431.0
16	14	46	12	136	193.0	132593.0	-4516.0	-5738714.0
16	14	46	12	136	194.0	108457.0	-4840.0	-5740177.0
16	14	46	12	136	195.0	89010.0	-4299.0	-5739685.0
16	14	46	12	137	196.0	66942.0	-3384.0	-5739066.0
16	14	46	12	137	197.0	38727.0	-3582.0	-5738464.0
16	14	46	12	138	198.0	7227.0	-3389.0	-5739134.0
16	14	46	12	138	199.0	-16958.0	-3231.0	-5739335.0
16	14	46	12	155	200.0	-32511.0	-3391.0	-5738767.0
16	14	46	12	155	201.0	-37857.0	-3739.0	-5738163.0
16	14	46	12	155	202.0	-45172.0	-4076.0	-5739236.0
16	14	46	12	156	203.0	-55381.0	-3974.0	-5739692.0
16	14	46	12	156	204.0	-70830.0	-4596.0	-5739112.0
16	14	46	12	156	205.0	-95108.0	-4564.0	-5738474.0
16	14	46	12	157	206.0	-122179.0	-4072.0	-5739047.0
16	14	46	12	157	207.0	-140502.0	-4039.0	-5739197.0
16	14	46	12	157	210.0	-166540.0	-4296.0	-5739931.0
16	14	46	12	157	211.0	-150624.0	-4486.0	-5739647.0
16	14	46	12	158	212.0	-111449.0	-4487.0	-5739025.0
16	14	46	12	158	213.0	-67558.0	-4314.0	-5738427.0
16	14	46	12	158	214.0	-9644.0	-3982.0	-5739142.0
16	14	46	12	159	215.0	66591.0	-3841.0	-5739523.0
16	14	46	12	223	216.0	135484.0	-4352.0	-5738936.0
16	14	46	12	224	217.0	197857.0	-4076.0	-5738531.0
16	14	46	12	225	218.0	239103.0	-3165.0	-5739940.0
16	14	46	12	226	219.0	262662.0	-2808.0	-5740036.0
16	14	46	12	227	220.0	265269.0	-2819.0	-5739442.0
16	14	46	12	227	221.0	248033.0	-3442.0	-5738825.0
16	14	46	12	228	222.0	232701.0	-3754.0	-5739362.0
16	14	46	12	229	223.0	223331.0	-3988.0	-5739477.0
16	14	46	12	229	224.0	226563.0	-3472.0	-5738904.0
16	14	46	12	230	225.0	241291.0	-3296.0	-5738982.0
16	14	46	12	239	226.0	242089.0	-2796.0	-5740354.0
16	14	46	12	240	227.0	243055.0	-2232.0	-5739912.0
16	14	46	12	241	228.0	239475.0	-2750.0	-5739283.0
16	14	46	12	241	229.0	234600.0	-2654.0	-5738674.0
16	14	46	12	242	230.0	226051.0	-2252.0	-5739601.0
16	14	46	12	242	254.0	162763.0	-1799.0	-5740187.0
16	14	46	12	243	255.0	179916.0	-1809.0	-5740631.0
16	14	46	12	244	0.0	194128.0	-2242.0	-5739987.0
16	14	46	12	244	1.0	205360.0	-1760.0	-5739384.0
16	14	46	12	245	2.0	215810.0	-1944.0	-5739372.0
16	14	46	12	246	3.0	222546.0	-1836.0	-5740136.0
16	14	46	12	246	4.0	232756.0	-1678.0	-5739641.0
16	14	46	12	271	5.0	240377.0	-1856.0	-5739132.0
16	14	46	12	271	6.0	240708.0	-1736.0	-5739994.0
16	14	46	12	272	7.0	233097.0	-660.0	-5740574.0
16	14	46	12	272	8.0	211528.0	-852.0	-5739902.0
16	14	46	12	272	9.0	175230.0	-1244.0	-5739276.0
16	14	46	12	273	10.0	134228.0	-1616.0	-5739573.0
16	14	46	12	273	11.0	95286.0	-1474.0	-5740796.0
16	14	46	12	291	12.0	56620.0	-845.0	-5740307.0
16	14	46	12	291	13.0	23605.0	-818.0	-5739723.0
16	14	46	12	292	14.0	-9294.0	-809.0	-5739524.0
16	14	46	12	292	15.0	-41611.0	-653.0	-5740462.0
16	14	46	12	292	16.0	-66867.0	-717.0	-5740064.0
16	14	46	12	293	17.0	-89737.0	-564.0	-5739521.0
16	14	46	12	341	18.0	-108557.0	-931.0	-5740312.0
16	14	46	12	341	19.0	-121396.0	-597.0	-5740858.0
16	14	46	12	342	21.0	-126470.0	19.0	-5739584.0
16	14	46	12	342	22.0	-116036.0	-639.0	-5739207.0
16	14	46	12	342	23.0	-104445.0	-975.0	-5740069.0
16	14	46	12	343	24.0	-88285.0	-782.0	-5739774.0
16	14	46	12	343	25.0	-71439.0	-489.0	-5739261.0
16	14	46	12	344	26.0	-58786.0	-327.0	-5740139.0
16	14	46	12	344	27.0	-55001.0	-370.0	-5740976.0
16	14	46	12	344	28.0	-59222.0	-489.0	-5740322.0
16	14	46	12	345	29.0	-77001.0	-1171.0	-5739714.0
16	14	46	12	345	30.0	-99402.0	-853.0	-5740211.0
16	14	46	12	346	31.0	-118701.0	-292.0	-5741460.0
16	14	46	12	346	32.0	-126703.0	-562.0	-5740896.0
16	14	46	12	346	33.0	-118095.0	-1135.0	-5740295.0
16	14	46	12	347	43.0	24661.0	-1737.0	-5741224.0
16	14	46	12	347	44.0	-5645.0	-1502.0	-5740684.0
16	14	46	12	348	45.0	-43062.0	-2071.0	-5740112.0
16	14	46	12	348	46.0	-79526.0	-1876.0	-5740505.0
16	14	46	12	348	47.0	-114025.0	-2088.0	-5741566.0
16	14	46	12	349	48.0	-149568.0	-1709.0	-5740957.0
16	14	46	12	349	49.0	-181377.0	-1894.0	-5740363.0
16	14	46	12	358	50.0	-208651.0	-1327.0	-5739778.0
16	14	46	12	359	51.0	-219150.0	-496.0	-5740380.0
16	14	46	12	360	52.0	-211524.0	101.0	-5740292.0
16	14	46	12	361	53.0	-188138.0	-215.0	-5739706.0
16	14	46	12	362	54.0	-150527.0	-401.0	-5739531.0
16	14	46	12	362	55.0	-105828.0	-391.0	-5740903.0
16	14	46	12	363	56.0	-62828.0	-627.0	-5740624.0
16	14	46	12	364	57.0	-19450.0	-720.0	-5740020.0
16	14	46	12	365	58.0	13846.0	-180.0	-5739596.0
16	14	46	12	366	59.0	40515.0	-186.0	-5740533.0
16	14	46	12	366	60.0	58675.0	79.0	-5740360.0
16	14	46	12	367	61.0	67623.0	122.0	-5739808.0
16	14	46	12	367	62.0	61848.0	566.0	-5740441.0
16	14	46	12	367	63.0	37470.0	298.0	-5741286.0
16	14	46	12	368	64.0	-8014.0	75.0	-5740626.0
16	14	46	12	375	66.0	-107531.0	-333.0	-5740357.0
16	14	46	12	376	67.0	-142614.0	-757.0	-5741656.0
16	14	46	12	376	68.0	-173052.0	-1111.0	-5741109.0
16	14	46	12	376	69.0	-192003.0	-1018.0	-5740498.0
16	14	46	12	377	70.0	-195729.0	-916.0	-5739911.0
16	14	46	12	377	71.0	-180156.0	-960.0	-5740562.0
16	14	46	12	405	72.0	-154356.0	-756.0	-5740769.0
16	14	46	12	407	73.0	-119122.0	-319.0	-5740179.0
16	14	46	12	408	74.0	-80962.0	799.0	-5740106.0
16	14	46	12	409	75.0	-34592.0	642.0	-5741451.0
16	14	46	12	410	76.0	11935.0	378.0	-5741097.0
16	14	46	12	411	77.0	47356.0	597.0	-5740485.0
16	14	46	12	412	78.0	85141.0	435.0	-5740326.0
16	14	46	12	413	79.0	119643.0	152.0	-5741691.0
16	14	46	12	415	80.0	144911.0	373.0	-5741386.0
16	14	46	12	416	81.0	162083.0	394.0	-5740766.0
16	14	46	12	418	82.0	176661.0	313.0	-5740132.0
16	14	46	12	419	83.0	185528.0	96.0	-5740621.0
16	14	46	12	420	84.0	185629.0	270.0	-5740984.0
16	14	46	12	421	85.0	180452.0	552.0	-5740402.0
16	14	46	12	422	86.0	174398.0	283.0	-5739943.0
16	14	46	12	423	88.0	159126.0	-16.0	-5741377.0
16	14	46	12	424	89.0	151565.0	-136.0	-5740729.0
16	14	46	12	425	90.0	145897.0	-1234.0	-5740371.0
16	14	46	12	426	91.0	135584.0	-1450.0	-5741636.0
16	14	46	12	427	92.0	123996.0	-1166.0	-5741668.0
16	14	46	12	428	93.0	108717.0	-1031.0	-5741046.0
16	14	46	12	429	94.0	96099.0	-1207.0	-5740421.0
16	14	46	12	449	95.0	95854.0	-1112.0	-5741119.0
16	14	46	12	450	96.0	95232.0	-1181.0	-5741926.0
16	14	46	12	450	97.0	93834.0	-701.0	-5741338.0
16	14	46	12	472	98.0	91980.0	-770.0	-5740655.0
16	14	46	12	473	99.0	91881.0	-1016.0	-5740612.0
16	14	46	12	473	100.0	94258.0	-1456.0	-5742051.0
16	14	46	12	474	101.0	100121.0	-1076.0	-5741734.0
16	14	46	12	474	102.0	99894.0	-1398.0	-5741108.0
16	14	46	12	475	103.0	86226.0	-1241.0	-5740442.0
16	14	46	12	475	104.0	56723.0	-939.0	-5741286.0
16	14	46	12	476	105.0	23423.0	-805.0	-5742102.0
16	14	46	12	476	106.0	-17669.0	-681.0	-5741581.0
16	14	46	12	477	107.0	-55883.0	-274.0	-5740997.0
16	14	46	12	477	108.0	-86667.0	-916.0	-5741916.0
16	14	46	12	477	109.0	-116535.0	-769.0	-5742357.0
16	14	46	12	478	111.0	-136484.0	-724.0	-5741057.0
16	14	46	12	478	112.0	-123152.0	-1519.0	-5741583.0
16	14	46	12	479	113.0	-106666.0	-1796.0	-5742566.0
16	14	46	12	479	114.0	-92601.0	-1631.0	-5742086.0
16	14	46	12	480	115.0	-90964.0	-1759.0	-5741346.0
16	14	46	12	480	116.0	-94984.0	-1898.0	-5741212.0
16	14	46	12	500	117.0	-98605.0	-1564.0	-5742487.0
16	14	46	12	501	118.0	-103296.0	-1129.0	-5742421.0
16	14	46	12	501	119.0	-108044.0	-564.0	-5741712.0
16	14	46	12	502	120.0	-122388.0	-179.0	-5741206.0
16	14	46	12	503	121.0	-150159.0	-203.0	-5741977.0
16	14	46	12	503	122.0	-170792.0	-414.0	-5742516.0
16	14	46	12	503	123.0	-180497.0	-191.0	-5741878.0
16	14	46	12	504	124.0	-175092.0	-840.0	-5741392.0
16	14	46	12	504	125.0	-150445.0	-1004.0	-5742321.0
16	14	46	12	505	126.0	-104677.0	-961.0	-5742981.0
16	14	46	12	505	127.0	-48897.0	-1059.0	-5742329.0
16	14	46	12	505	128.0	10249.0	-808.0	-5741710.0
16	14	46	12	506	129.0	69937.0	-474.0	-5742202.0
16	14	46	12	523	130.0	126823.0	-141.0	-5743080.0
16	14	46	12	523	131.0	177503.0	74.0	-5742480.0
16	14	46	12	524	133.0	222273.0	-237.0	-5741471.0
16	14	46	12	524	134.0	204597.0	-427.0	-5742789.0
16	14	46	12	524	135.0	179177.0	-558.0	-5742944.0
16	14	46	12	525	136.0	151861.0	-467.0	-5742254.0
16	14	46	12	525	137.0	120828.0	-316.0	-5741799.0
16	14	46	12	525	138.0	83032.0	52.0	-5742888.0
16	14	46	12	525	139.0	35247.0	-103.0	-5743264.0
16	14	46	12	542	140.0	-11236.0	214.0	-5742591.0
16	14	46	12	542	141.0	-32851.0	736.0	-5742019.0
16	14	46	12	543	142.0	-50226.0	1344.0	-5742811.0
16	14	46	12	543	143.0	-66511.0	1164.0	-5743575.0
16	14	46	12	544	144.0	-80007.0	1488.0	-5742886.0
16	14	46	12	545	145.0	-94977.0	1236.0	-5742276.0
16	14	46	12	545	146.0	-95636.0	594.0	-5742229.0
16	14	46	12	545	147.0	-82156.0	576.0	-5743667.0
16	14	46	12	546	148.0	-73129.0	655.0	-5743325.0
16	14	46	12	547	149.0	-61442.0	884.0	-5742727.0
16	14	46	12	548	150.0	-46059.0	1219.0	-5742088.0
16	14	46	12	549	151.0	-21107.0	1493.0	-5743079.0
16	14	46	12	550	152.0	9253.0	1383.0	-5743621.0
16	14	46	12	550	153.0	29884.0	1245.0	-5743051.0
16	14	46	12	550	154.0	38089.0	1199.0	-5742454.0
16	14	46	12	551	156.0	35450.0	538.0	-5744027.0
16	14	46	12	551	157.0	27915.0	-392.0	-5743467.0
16	14	46	12	552	158.0	20419.0	-482.0	-5742782.0
16	14	46	12	552	159.0	10459.0	42.0	-5743340.0
16	14	46	12	552	160.0	248.0	338.0	-5744432.0
16	14	46	12	560	161.0	-8392.0	444.0	-5743943.0
16	14	46	12	582	162.0	-7104.0	523.0	-5743209.0
16	14	46	12	628	163.0	-7366.0	893.0	-5742746.0
16	14	46	12	629	164.0	-12841.0	2094.0	-5743904.0
16	14	46	12	629	165.0	-31804.0	1759.0	-5744272.0
16	14	46	12	630	166.0	-53582.0	1370.0	-5743609.0
16	14	46	12	630	167.0	-65092.0	1010.0	-5742997.0
16	14	46	12	631	168.0	-67271.0	1613.0	-5743780.0
16	14	46	12	631	169.0	-63933.0	1951.0	-5744451.0
16	14	46	12	639	170.0	-56251.0	2166.0	-5743825.0
16	14	46	12	640	171.0	-39529.0	1744.0	-5743202.0
16	14	46	12	641	172.0	-11882.0	1403.0	-5743887.0
16	14	46	12	641	173.0	15559.0	1455.0	-5744924.0
16	14	46	12	642	174.0	41213.0	1479.0	-5744396.0
16	14	46	12	643	175.0	54652.0	973.0	-5743701.0
16	14	46	12	643	176.0	61859.0	1268.0	-5743682.0
16	14	46	12	644	178.0	55029.0	941.0	-5744575.0
16	14	46	12	668	201.0	167747.0	2532.0	-5743871.0
16	14	46	12	668	202.0	194279.0	1374.0	-5745493.0
16	14	46	12	669	203.0	199478.0	1413.0	-5745551.0
16	14	46	12	669	204.0	174141.0	1455.0	-5744927.0
16	14	46	12	670	205.0	136882.0	1466.0	-5744302.0
16	14	46	12	670	206.0	89193.0	1134.0	-5744847.0
16	14	46	12	693	207.0	51662.0	1287.0	-5745085.0
16	14	46	12	694	208.0	28284.0	1775.0	-5744499.0
16	14	46	12	694	209.0	11268.0	2345.0	-5744400.0
16	14	46	12	695	210.0	-13106.0	2380.0	-5745982.0
16	14	46	12	695	211.0	-48432.0	1873.0	-5745769.0
16	14	46	12	695	212.0	-86772.0	1746.0	-5745129.0
16	14	46	12	696	213.0	-114619.0	2064.0	-5744502.0
16	14	46	12	696	214.0	-132326.0	1518.0	-5744777.0
16	14	46	12	696	215.0	-142952.0	1633.0	-5745329.0
16	14	46	12	697	216.0	-150208.0	1318.0	-5744772.0
16	14	46	12	697	217.0	-145504.0	1381.0	-5744532.0
16	14	46	12	697	218.0	-131172.0	1418.0	-5745873.0
16	14	46	12	698	219.0	-105317.0	796.0	-5745768.0
16	14	46	12	698	220.0	-53587.0	1129.0	-5745147.0
16	14	46	12	698	221.0	7870.0	589.0	-5744494.0
16	14	46	12	699	223.0	107482.0	773.0	-5745521.0
16	14	46	12	699	224.0	138233.0	338.0	-5744976.0
16	14	46	12	699	225.0	155700.0	-271.0	-5744955.0
16	14	46	12	699	226.0	158814.0	-354.0	-5746371.0
16	14	46	12	700	227.0	157849.0	-77.0	-5746042.0
16	14	46	12	700	228.0	154187.0	321.0	-5745387.0
16	14	46	12	717	229.0	151894.0	614.0	-5744746.0
16	14	46	12	717	230.0	150913.0	948.0	-5744852.0
16	14	46	12	718	231.0	151230.0	1951.0	-5745417.0
16	14	46	12	737	232.0	146624.0	2619.0	-5744900.0
16	14	46	12	738	233.0	135688.0	2485.0	-5744455.0
16	14	46	12	738	234.0	120142.0	2379.0	-5745665.0
16	14	46	12	738	235.0	104982.0	2316.0	-5745904.0
16	14	46	12	739	236.0	90450.0	2084.0	-5745289.0
16	14	46	12	739	237.0	70344.0	1730.0	-5744984.0
16	14	46	12	739	238.0	41885.0	1485.0	-5746293.0
16	14	46	12	740	239.0	7261.0	1543.0	-5746317.0
16	14	46	12	740	240.0	-28607.0	1972.0	-5745641.0
16	14	46	12	740	241.0	-63529.0	1895.0	-5745037.0
16	14	46	12	741	242.0	-100441.0	1562.0	-5745663.0
16	14	46	12	741	243.0	-139208.0	1451.0	-5746427.0
16	14	46	12	741	246.0	-235477.0	1140.0	-5744810.0
16	14	46	12	742	247.0	-238573.0	223.0	-5745615.0
16	14	46	12	742	248.0	-231834.0	646.0	-5745284.0
16	14	46	12	742	249.0	-219607.0	1142.0	-5744665.0
16	14	46	12	743	250.0	-206296.0	1334.0	-5745253.0
16	14	46	12	743	251.0	-190827.0	990.0	-5746559.0
16	14	46	12	762	252.0	-166109.0	721.0	-5745999.0
16	14	46	12	763	253.0	-125475.0	1337.0	-5745390.0
16	14	46	12	763	254.0	-64038.0	1825.0	-5745302.0
16	14	46	12	764	255.0	6402.0	1970.0	-5746210.0
16	14	46	12	765	0.0	82594.0	1541.0	-5745771.0
16	14	46	12	766	1.0	165156.0	1642.0	-5745325.0
16	14	46	12	766	2.0	233239.0	1563.0	-5746432.0
16	14	46	12	777	3.0	280465.0	1585.0	-5746776.0
16	14	46	12	778	4.0	317482.0	1563.0	-5746056.0
16	14	46	12	778	5.0	343699.0	1742.0	-5745466.0
16	14	46	12	778	6.0	318915.0	1603.0	-5745274.0
16	14	46	12	779	7.0	190181.0	1234.0	-5746577.0
16	14	46	12	779	8.0	-9249.0	1096.0	-5746273.0
16	14	46	12	779	9.0	-187001.0	1311.0	-5745640.0
16	14	46	12	780	10.0	-316301.0	1424.0	-5745238.0
16	14	46	12	780	12.0	-300552.0	1605.0	-5745907.0
16	14	46	12	780	13.0	-199208.0	467.0	-5745353.0
16	14	46	12	780	14.0	-113133.0	544.0	-5746091.0
16	14	46	12	781	15.0	-24701.0	931.0	-5746996.0
16	14	46	12	781	16.0	78458.0	766.0	-5746325.0
16	14	46	12	781	17.0	195062.0	973.0	-5745697.0
16	14	46	12	782	18.0	302425.0	1023.0	-5745630.0
16	14	46	12	806	19.0	365230.0	883.0	-5746590.0
16	14	46	12	807	20.0	371724.0	825.0	-5746156.0
16	14	46	12	807	21.0	342153.0	1568.0	-5745569.0
16	14	46	12	821	22.0	303365.0	1379.0	-5746104.0
16	14	46	12	822	23.0	252404.0	1456.0	-5747109.0
16	14	46	12	853	24.0	188310.0	2134.0	-5746495.0
16	14	46	12	870	25.0	127888.0	2139.0	-5745874.0
16	14	46	12	871	26.0	78082.0	2444.0	-5745553.0
16	14	46	12	871	27.0	30989.0	2826.0	-5746776.0
16	14	46	12	871	28.0	-35391.0	2900.0	-5746568.0
16	14	46	12	871	29.0	-108429.0	2541.0	-5745949.0
16	14	46	12	872	30.0	-164555.0	2983.0	-5745591.0
16	14	46	12	872	31.0	-207297.0	3285.0	-5746648.0
16	14	46	12	872	32.0	-221615.0	3184.0	-5746449.0
16	14	46	12	872	33.0	-195173.0	2933.0	-5745877.0
16	14	46	12	873	34.0	-125863.0	3119.0	-5745667.0
16	14	46	12	873	35.0	-52319.0	3191.0	-5746572.0
16	14	46	12	873	36.0	2147.0	2999.0	-5746167.0
16	14	46	12	873	37.0	44078.0	3104.0	-5745602.0
16	14	46	12	874	38.0	70397.0	4071.0	-5746249.0
16	14	46	12	874	57.0	-201624.0	3974.0	-5746068.0
16	14	46	12	875	58.0	-212148.0	3489.0	-5745788.0
16	14	46	12	875	59.0	-206762.0	3176.0	-5746821.0
16	14	46	12	875	60.0	-178141.0	3456.0	-5746571.0
16	14	46	12	876	61.0	-138428.0	3506.0	-5746301.0
16	14	46	12	876	62.0	-88197.0	3434.0	-5747689.0
16	14	46	12	942	63.0	-38886.0	3728.0	-5747712.0
16	14	46	12	942	64.0	9297.0	4044.0	-5747022.0
16	14	46	12	943	65.0	49284.0	4654.0	-5746396.0
16	14	46	12	956	66.0	83500.0	4781.0	-5746415.0
16	14	46	12	956	67.0	109791.0	4746.0	-5747316.0
16	14	46	12	957	68.0	123621.0	4284.0	-5746841.0
16	14	46	12	957	69.0	125156.0	4209.0	-5746284.0
16	14	46	12	958	70.0	112861.0	4344.0	-5747135.0
16	14	46	12	958	71.0	93934.0	4331.0	-5747667.0
16	14	46	12	959	72.0	66831.0	4066.0	-5746995.0
16	14	46	12	959	73.0	41854.0	4308.0	-5746367.0
16	14	46	12	960	74.0	22466.0	4588.0	-5746372.0
16	14	46	12	960	75.0	12990.0	4837.0	-5747254.0
16	14	46	12	960	76.0	3525.0	4867.0	-5746806.0
16	14	46	12	961	77.0	-4245.0	5161.0	-5746695.0
16	14	46	12	961	102.0	-142417.0	12188.0	-5747113.0
16	14	46	12	962	103.0	-157524.0	12211.0	-5747976.0
16	14	46	12	962	104.0	-183709.0	13224.0	-5748867.0
16	14	46	12	963	105.0	-208134.0	14795.0	-5748378.0
16	14	46	12	963	106.0	-213469.0	15731.0	-5747694.0
16	14	46	12	963	107.0	-220211.0	16739.0	-5747952.0
16	14	46	12	990	108.0	-203724.0	17824.0	-5749072.0
16	14	46	12	991	109.0	-196870.0	18449.0	-5748709.0
16	14	46	12	991	110.0	-170438.0	19698.0	-5748021.0
16	14	46	12	991	111.0	-162811.0	20032.0	-5747951.0
16	14	46	12	992	112.0	-152084.0	21284.0	-5749190.0
16	14	46	12	992	113.0	-140336.0	22266.0	-5749004.0
16	14	46	12	992	114.0	-132580.0	22526.0	-5748286.0
16	14	46	12	993	115.0	-97447.0	22584.0	-5747724.0
16	14	46	13	32	116.0	-60821.0	22749.0	-5748609.0
16	14	46	13	32	117.0	-10018.0	23201.0	-5749368.0
16	14	46	13	79	118.0	14889.0	23717.0	-5748729.0
16	14	46	13	80	119.0	49178.0	24244.0	-5748086.0
16	14	46	13	92	120.0	75514.0	24720.0	-5748498.0
16	14	46	13	93	121.0	97769.0	25071.0	-5749654.0
16	14	46	13	93	122.0	140908.0	25347.0	-5749197.0
16	14	46	13	94	124.0	201937.0	26319.0	-5748653.0
16	14	46	13	94	125.0	210533.0	25666.0	-5749881.0
16	14	46	13	95	126.0	214255.0	25232.0	-5749533.0
16	14	46	13	95	127.0	209119.0	25632.0	-5748874.0
16	14	46	13	96	128.0	179499.0	26458.0	-5748544.0
16	14	46	13	96	129.0	134458.0	27143.0	-5749745.0
16	14	46	13	97	130.0	97636.0	26912.0	-5749872.0
16	14	46	13	99	131.0	82264.0	26364.0	-5749112.0
16	14	46	13	99	147.0	44703.0	17909.0	-5749697.0
16	14	46	13	100	148.0	27536.0	17013.0	-5749131.0
16	14	46	13	100	149.0	1217.0	16699.0	-5749678.0
16	14	46	13	101	170.0	-569729.0	2039.0	-5750563.0
16	14	46	13	101	171.0	-651636.0	853.0	-5749871.0
16	14	46	13	102	172.0	-561136.0	443.0	-5749306.0
16	14	46	13	102	173.0	-273226.0	460.0	-5749813.0
16	14	46	13	103	174.0	89216.0	-75.0	-5750796.0
16	14	46	13	103	175.0	360189.0	-169.0	-5750207.0
16	14	46	13	128	176.0	484376.0	-572.0	-5749609.0
16	14	46	13	129	177.0	550584.0	-489.0	-5749319.0
16	14	46	13	129	178.0	548404.0	-67.0	-5750508.0
16	14	46	13	129	179.0	483855.0	-117.0	-5750250.0
16	14	46	13	129	180.0	367369.0	-1069.0	-5749579.0
16	14	46	13	130	181.0	221381.0	-1737.0	-5749021.0
16	14	46	13	130	182.0	57036.0	-2412.0	-5750141.0
16	14	46	13	130	183.0	-112979.0	-2904.0	-5750639.0
16	14	46	13	152	184.0	-287052.0	-3413.0	-5749991.0
16	14	46	13	153	185.0	-412626.0	-3607.0	-5749352.0
16	14	46	13	153	186.0	-477519.0	-4264.0	-5749516.0
16	14	46	13	153	187.0	-465631.0	-4492.0	-5750756.0
16	14	46	13	153	188.0	-371971.0	-4520.0	-5750321.0
16	14	46	13	154	189.0	-236712.0	-5251.0	-5749694.0
16	14	46	13	154	190.0	-121424.0	-5252.0	-5749789.0
16	14	46	13	154	192.0	-16610.0	-4837.0	-5750046.0
16	14	46	13	155	193.0	-7487.0	-5627.0	-5749449.0
16	14	46	13	155	194.0	4138.0	-5815.0	-5750103.0
16	14	46	13	155	195.0	18421.0	-5800.0	-5750882.0
16	14	46	13	155	196.0	50540.0	-5677.0	-5750234.0
16	14	46	13	156	197.0	71675.0	-5728.0	-5749616.0
16	14	46	13	172	198.0	28518.0	-5604.0	-5749511.0
16	14	46	13	172	199.0	163746.0	-5479.0	-5750436.0
16	14	46	13	173	200.0	316480.0	-5449.0	-5750022.0
16	14	46	13	173	201.0	242082.0	-5190.0	-5749449.0
16	14	46	13	173	202.0	284318.0	-4850.0	-5750096.0
16	14	46	13	173	203.0	335198.0	-5096.0	-5750882.0
16	14	46	13	174	204.0	351370.0	-4975.0	-5750249.0
16	14	46	13	174	205.0	357423.0	-4552.0	-5749612.0
16	14	46	13	174	206.0	344409.0	-4541.0	-5749522.0
16	14	46	13	174	207.0	325602.0	-4130.0	-5750469.0
16	14	46	13	191	208.0	316177.0	-4342.0	-5750062.0
16	14	46	13	191	209.0	294354.0	-5034.0	-5749661.0
16	14	46	13	192	210.0	262063.0	-4854.0	-5750850.0
16	14	46	13	192	211.0	214427.0	-4879.0	-5751059.0
16	14	46	13	192	212.0	157006.0	-4980.0	-5750332.0
16	14	46	13	192	214.0	17067.0	-4591.0	-5749569.0
16	14	46	13	193	215.0	-63147.0	-4911.0	-5750431.0
16	14	46	13	193	216.0	-136828.0	-5321.0	-5749994.0
16	14	46	13	193	217.0	-190436.0	-5283.0	-5749559.0
16	14	46	13	193	218.0	-226397.0	-4847.0	-5750732.0
16	14	46	13	194	219.0	-233757.0	-5178.0	-5751121.0
16	14	46	13	194	220.0	-217556.0	-5594.0	-5750452.0
16	14	46	13	211	221.0	-191296.0	-5389.0	-5749941.0
16	14	46	13	229	222.0	-161466.0	-5527.0	-5750921.0
16	14	46	13	229	223.0	-131246.0	-5102.0	-5751411.0
16	14	46	13	230	224.0	-101809.0	-5214.0	-5750753.0
16	14	46	13	230	225.0	-81296.0	-5378.0	-5750155.0
16	14	46	13	230	226.0	-67319.0	-5754.0	-5750019.0
16	14	46	13	230	227.0	-61474.0	-6509.0	-5750874.0
16	14	46	13	231	228.0	-59358.0	-6810.0	-5750424.0
16	14	46	13	231	229.0	-67583.0	-6537.0	-5749844.0
16	14	46	13	231	230.0	-80469.0	-6339.0	-5750598.0
16	14	46	13	231	231.0	-102207.0	-6712.0	-5751548.0
16	14	46	13	232	232.0	-123622.0	-6859.0	-5750902.0
16	14	46	13	232	233.0	-147342.0	-6267.0	-5750302.0
16	14	46	13	257	234.0	-165082.0	-6209.0	-5750098.0
16	14	46	13	272	235.0	-172825.0	-6552.0	-5751359.0
16	14	46	13	272	237.0	-146365.0	-6671.0	-5750468.0
16	14	46	13	272	238.0	-122071.0	-7417.0	-5750231.0
16	14	46	13	273	239.0	-87406.0	-7510.0	-5751703.0
16	14	46	13	273	240.0	-44385.0	-7503.0	-5751531.0
16	14	46	13	273	241.0	-4518.0	-7038.0	-5750922.0
16	14	46	13	273	242.0	35881.0	-5891.0	-5750235.0
16	14	46	13	274	243.0	74424.0	-5667.0	-5751065.0
16	14	46	13	274	244.0	101694.0	-5550.0	-5751672.0
16	14	46	13	274	245.0	119890.0	-5868.0	-5751093.0
16	14	46	13	274	246.0	139199.0	-5464.0	-5750353.0
16	14	46	13	275	247.0	155844.0	-5347.0	-5750621.0
16	14	46	13	275	248.0	173551.0	-4702.0	-5751893.0
16	14	46	13	275	249.0	188398.0	-4791.0	-5751516.0
16	14	46	13	275	3.0	41956.0	-3442.0	-5750878.0
16	14	46	13	276	4.0	44084.0	-4023.0	-5751916.0
16	14	46	13	276	5.0	48116.0	-3923.0	-5752745.0
16	14	46	13	302	6.0	47559.0	-4229.0	-5752186.0
16	14	46	13	322	7.0	46312.0	-4384.0	-5751490.0
16	14	46	13	323	8.0	45289.0	-3666.0	-5751719.0
16	14	46	13	323	9.0	44676.0	-3178.0	-5752811.0
16	14	46	13	323	10.0	41661.0	-3099.0	-5752431.0
16	14	46	13	324	11.0	41689.0	-2752.0	-5751762.0
16	14	46	13	324	12.0	44394.0	-3062.0	-5751826.0
16	14	46	13	324	13.0	46973.0	-3913.0	-5753136.0
16	14	46	13	325	14.0	39453.0	-3738.0	-5752912.0
16	14	46	13	325	15.0	18849.0	-3493.0	-5752184.0
16	14	46	13	325	16.0	-10571.0	-3567.0	-5751907.0
16	14	46	13	325	17.0	-46807.0	-3438.0	-5752992.0
16	14	46	13	326	18.0	-87804.0	-3294.0	-5752989.0
16	14	46	13	326	19.0	-130739.0	-2912.0	-5752234.0
16	14	46	13	326	20.0	-166208.0	-2539.0	-5751657.0
16	14	46	13	327	21.0	-181912.0	-3037.0	-5752216.0
16	14	46	13	327	26.0	-74500.0	-2889.0	-5753504.0
16	14	46	13	327	27.0	-55697.0	-3810.0	-5753073.0
16	14	46	13	328	28.0	-25101.0	-3497.0	-5752444.0
16	14	46	13	328	29.0	7224.0	-3215.0	-5752132.0
16	14	46	13	328	30.0	28299.0	-2691.0	-5753650.0
16	14	46	13	328	31.0	45217.0	-2521.0	-5753678.0
16	14	46	13	347	32.0	63681.0	-2779.0	-5753062.0
16	14	46	13	365	33.0	83495.0	-2825.0	-5752435.0
16	14	46	13	365	34.0	106794.0	-2447.0	-5752874.0
16	14	46	13	366	35.0	127744.0	-2707.0	-5753196.0
16	14	46	13	366	36.0	141511.0	-3103.0	-5752595.0
16	14	46	13	366	37.0	146395.0	-3164.0	-5752055.0
16	14	46	13	366	38.0	142017.0	-3601.0	-5752981.0
16	14	46	13	367	39.0	128455.0	-3242.0	-5753320.0
16	14	46	13	367	40.0	118611.0	-3362.0	-5752674.0
16	14	46	13	367	41.0	111861.0	-3070.0	-5752024.0
16	14	46	13	368	42.0	95333.0	-2687.0	-5752192.0
16	14	46	13	368	43.0	67650.0	-2736.0	-5752846.0
16	14	46	13	368	44.0	36627.0	-3143.0	-5752347.0
16	14	46	13	368	45.0	14024.0	-3129.0	-5752704.0
16	14	46	13	369	46.0	1569.0	-2725.0	-5753947.0
16	14	46	13	369	48.0	-26719.0	-2692.0	-5752820.0
16	14	46	13	369	49.0	-48076.0	-3344.0	-5752445.0
16	14	46	13	369	50.0	-76289.0	-3655.0	-5753757.0
16	14	46	13	370	51.0	-108776.0	-3591.0	-5753813.0
16	14	46	13	370	52.0	-135562.0	-2927.0	-5753085.0
16	14	46	13	370	53.0	-134339.0	-3014.0	-5752486.0
16	14	46	13	391	54.0	-129962.0	-2996.0	-5752422.0
16	14	46	13	438	55.0	-100950.0	-2959.0	-5753146.0
16	14	46	13	484	56.0	-57761.0	-2071.0	-5752665.0
16	14	46	13	507	57.0	-17474.0	-1706.0	-5752194.0
16	14	46	13	508	58.0	12456.0	-2087.0	-5753214.0
16	14	46	13	508	59.0	23526.0	-2511.0	-5753499.0
16	14	46	13	539	60.0	39931.0	-2768.0	-5752836.0
16	14	46	13	540	61.0	33585.0	-2731.0	-5752181.0
16	14	46	13	540	62.0	40318.0	-2776.0	-5752499.0
16	14	46	13	541	63.0	45106.0	-3053.0	-5753112.0
16	14	46	13	572	64.0	71461.0	-3476.0	-5752572.0
16	14	46	13	589	65.0	81331.0	-3212.0	-5752448.0
16	14	46	13	589	66.0	113291.0	-3042.0	-5753814.0
16	14	46	13	589	67.0	122668.0	-2828.0	-5753582.0
16	14	46	13	590	68.0	141547.0	-2723.0	-5752891.0
16	14	46	13	590	71.0	172720.0	-3281.0	-5754133.0
16	14	46	13	590	93.0	37324.0	-2996.0	-5754643.0
16	14	46	13	590	115.0	-146562.0	-742.0	-5754673.0
16	14	46	13	591	116.0	-137249.0	-529.0	-5754094.0
16	14	46	13	591	117.0	-131269.0	-574.0	-5754487.0
16	14	46	13	591	118.0	-116652.0	743.0	-5755301.0
16	14	46	13	592	119.0	-116172.0	1642.0	-5754646.0
16	14	46	13	592	138.0	72825.0	6703.0	-5755366.0
16	14	46	13	592	139.0	75463.0	6859.0	-5755608.0
16	14	46	13	592	140.0	51018.0	7191.0	-5755004.0
16	14	46	13	592	160.0	3454.0	4718.0	-5755341.0
16	14	46	13	593	161.0	16009.0	4374.0	-5754967.0
16	14	46	13	593	162.0	-8819.0	3496.0	-5756328.0
16	14	46	13	593	163.0	-14061.0	3462.0	-5756420.0
16	14	46	13	593	164.0	-32034.0	3609.0	-5755698.0
16	14	46	13	594	165.0	-28174.0	4101.0	-5755027.0
16	14	46	13	594	166.0	-12412.0	4633.0	-5754924.0
16	14	46	13	618	167.0	-1128.0	4956.0	-5755641.0
16	14	46	13	640	168.0	836.0	5266.0	-5755187.0
16	14	46	13	640	169.0	-6316.0	6199.0	-5754662.0
16	14	46	13	641	170.0	-18841.0	6206.0	-5755563.0
16	14	46	13	641	171.0	-36671.0	6571.0	-5755956.0
16	14	46	13	641	172.0	-120102.0	6571.0	-5755308.0
16	14	46	13	641	173.0	-132218.0	6107.0	-5754917.0
16	14	46	13	642	174.0	-156195.0	4987.0	-5756106.0
16	14	46	13	642	175.0	-142883.0	4641.0	-5756175.0
16	14	46	13	642	176.0	-119922.0	4119.0	-5755494.0
16	14	46	13	643	177.0	-77949.0	3769.0	-5754876.0
16	14	46	13	643	178.0	-71322.0	3806.0	-5754886.0
16	14	46	13	643	179.0	-41454.0	3818.0	-5755462.0
16	14	46	13	644	180.0	-42254.0	4004.0	-5754905.0
16	14	46	13	644	181.0	-41551.0	4504.0	-5754365.0
16	14	46	13	644	183.0	-59616.0	4545.0	-5755651.0
16	14	46	13	645	184.0	-55694.0	4312.0	-5755023.0
16	14	46	13	645	185.0	-63455.0	5134.0	-5754425.0
16	14	46	13	646	186.0	-41867.0	5718.0	-5755102.0
16	14	46	13	646	187.0	-37893.0	6354.0	-5755741.0
16	14	46	13	646	188.0	-9522.0	7229.0	-5755123.0
16	14	46	13	662	189.0	-4013.0	7773.0	-5754541.0
16	14	46	13	662	190.0	24423.0	7952.0	-5755212.0
16	14	46	13	682	191.0	37915.0	8963.0	-5756042.0
16	14	46	13	683	192.0	60045.0	9137.0	-5755416.0
16	14	46	13	683	193.0	89249.0	9183.0	-5754797.0
16	14	46	13	683	194.0	115194.0	9579.0	-5754804.0
16	14	46	13	684	195.0	138682.0	9588.0	-5755719.0
16	14	46	13	684	196.0	145456.0	9823.0	-5755260.0
16	14	46	13	684	197.0	143754.0	9886.0	-5754681.0
16	14	46	13	684	198.0	118978.0	9930.0	-5755262.0
16	14	46	13	685	199.0	91112.0	10155.0	-5756266.0
16	14	46	13	685	200.0	68646.0	10498.0	-5755647.0
16	14	46	13	685	201.0	59681.0	10334.0	-5755002.0
16	14	46	13	685	202.0	60636.0	10321.0	-5754854.0
16	14	46	13	685	203.0	71327.0	10518.0	-5756451.0
16	14	46	13	686	205.0	90162.0	11188.0	-5755632.0
16	14	46	13	686	206.0	111241.0	10913.0	-5755414.0
16	14	46	13	686	207.0	131780.0	10044.0	-5756272.0
16	14	46	13	686	208.0	140737.0	10354.0	-5755874.0
16	14	46	13	687	209.0	135924.0	11093.0	-5755228.0
16	14	46	13	687	210.0	111471.0	11371.0	-5755146.0
16	14	46	13	687	211.0	86078.0	11255.0	-5755642.0
16	14	46	13	708	212.0	41180.0	10761.0	-5755074.0
16	14	46	13	722	213.0	-592.0	10814.0	-5754931.0
16	14	46	13	723	214.0	-46611.0	11709.0	-5756141.0
16	14	46	13	753	215.0	-84552.0	11714.0	-5755931.0
16	14	46	13	773	216.0	-113286.0	11093.0	-5755223.0
16	14	46	13	774	217.0	-145557.0	10666.0	-5754641.0
16	14	46	13	774	218.0	-174907.0	10561.0	-5755195.0
16	14	46	13	775	219.0	-190677.0	10320.0	-5756184.0
16	14	46	13	775	220.0	-170841.0	9764.0	-5755570.0
16	14	46	13	775	221.0	-145137.0	9279.0	-5754964.0
16	14	46	13	776	222.0	-107754.0	8623.0	-5755279.0
16	14	46	13	776	223.0	-65330.0	7988.0	-5756437.0
16	14	46	13	777	224.0	-37542.0	7363.0	-5755887.0
16	14	46	13	777	225.0	-1996.0	7013.0	-5755289.0
16	14	46	13	777	226.0	23348.0	7139.0	-5754931.0
16	14	46	13	778	228.0	57033.0	6369.0	-5755669.0
16	14	46	13	778	229.0	61461.0	5224.0	-5755059.0
16	14	46	13	779	230.0	70576.0	5351.0	-5755110.0
16	14	46	13	802	250.0	29626.0	-20546.0	-5755272.0
16	14	46	13	802	251.0	22349.0	-22052.0	-5756169.0
16	14	46	13	842	252.0	37679.0	-22485.0	-5756192.0
16	14	46	13	889	253.0	51813.0	-22241.0	-5755611.0
16	14	46	13	890	254.0	74591.0	-21902.0	-5756379.0
16	14	46	13	890	255.0	87109.0	-21458.0	-5757393.0
16	14	46	13	890	0.0	98126.0	-20555.0	-5756717.0
16	14	46	13	891	1.0	96334.0	-19439.0	-5756105.0
16	14	46	13	891	2.0	96463.0	-19034.0	-5755467.0
16	14	46	13	910	3.0	96184.0	-19816.0	-5756117.0
16	14	46	13	910	4.0	76783.0	-20767.0	-5756294.0
16	14	46	13	911	5.0	59568.0	-21531.0	-5755691.0
16	14	46	13	911	6.0	33479.0	-21150.0	-5755584.0
16	14	46	13	911	7.0	13684.0	-21025.0	-5756843.0
16	14	46	13	912	8.0	-11642.0	-20489.0	-5756472.0
16	14	46	13	912	9.0	-42886.0	-19769.0	-5755844.0
16	14	46	13	913	17.0	-37122.0	-12241.0	-5755924.0
16	14	46	13	913	39.0	-37421.0	1291.0	-5755935.0
16	14	46	13	913	62.0	240768.0	8294.0	-5757843.0
16	14	46	13	914	63.0	225071.0	7374.0	-5757084.0
16	14	46	13	915	64.0	189212.0	7492.0	-5756846.0
16	14	46	13	915	65.0	134196.0	7978.0	-5758092.0
16	14	46	13	916	66.0	74460.0	8251.0	-5758142.0
16	14	46	13	916	67.0	20366.0	8344.0	-5757391.0
16	14	46	13	946	68.0	-9616.0	8439.0	-5756814.0
16	14	46	13	947	69.0	-35397.0	8643.0	-5757634.0
16	14	46	13	947	70.0	-38521.0	9516.0	-5758392.0
16	14	46	13	948	71.0	-49762.0	9390.0	-5757725.0
16	14	46	13	948	72.0	-81152.0	9459.0	-5757068.0
16	14	46	13	948	73.0	-120382.0	8736.0	-5757291.0
16	14	46	13	949	74.0	-171565.0	8640.0	-5758642.0
16	14	46	13	949	75.0	-218011.0	8614.0	-5758244.0
16	14	46	13	949	76.0	-273789.0	8598.0	-5757588.0
16	14	46	13	950	77.0	-318550.0	8808.0	-5757682.0
16	14	46	13	950	78.0	-360986.0	8764.0	-5758923.0
16	14	46	13	950	79.0	-375433.0	8559.0	-5758553.0
16	14	46	13	951	80.0	-370984.0	8746.0	-5757860.0
16	14	46	13	951	81.0	-346446.0	8241.0	-5757411.0
16	14	46	13	951	82.0	-300613.0	8273.0	-5758490.0
16	14	46	13	952	84.0	-191022.0	8157.0	-5758109.0
16	14	46	13	952	85.0	-123773.0	8039.0	-5757524.0
16	14	46	13	952	86.0	-42969.0	7091.0	-5758060.0
16	14	46	13	953	87.0	24261.0	6660.0	-5759081.0
16	14	46	13	953	88.0	90294.0	6767.0	-5758450.0
16	14	46	13	953	89.0	147851.0	7683.0	-5757844.0
16	14	46	13	977	90.0	205954.0	8836.0	-5757851.0
16	14	46	13	990	91.0	248976.0	10731.0	-5759129.0
16	14	46	13	991	92.0	278231.0	12993.0	-5758726.0
16	14	46	13	991	93.0	302029.0	14619.0	-5758111.0
16	14	46	13	991	94.0	307396.0	15727.0	-5757868.0
16	14	46	13	992	95.0	289419.0	15958.0	-5759486.0
16	14	46	13	992	96.0	250783.0	16024.0	-5759393.0
16	14	46	13	992	97.0	208084.0	15854.0	-5758786.0
16	14	46	13	992	98.0	139387.0	16191.0	-5758111.0
16	14	46	13	993	99.0	69686.0	16351.0	-5758979.0
16	14	46	13	993	100.0	-2837.0	16318.0	-5759731.0
16	14	46	13	993	101.0	-62324.0	15887.0	-5759147.0
16	14	46	13	993	102.0	-105664.0	16023.0	-5758457.0
16	14	46	13	994	103.0	-146204.0	15721.0	-5758377.0
16	14	46	13	994	104.0	-166605.0	15350.0	-5759555.0
16	14	46	13	994	106.0	-157739.0	14882.0	-5758628.0
16	14	46	13	995	107.0	-131723.0	14282.0	-5758837.0
16	14	46	13	995	108.0	-94621.0	13486.0	-5759976.0
16	14	46	13	995	109.0	-70376.0	13045.0	-5759527.0
16	14	46	13	995	110.0	-66496.0	13414.0	-5758863.0
16	14	46	13	996	111.0	-57290.0	14078.0	-5758749.0
16	14	46	13	996	112.0	-45710.0	14199.0	-5760049.0
16	14	46	14	23	113.0	-26271.0	13856.0	-5759798.0
16	14	46	14	41	114.0	-17133.0	14214.0	-5759154.0
16	14	46	14	41	115.0	-7739.0	14982.0	-5758515.0
16	14	46	14	41	116.0	-9426.0	15094.0	-5759455.0
16	14	46	14	42	117.0	2199.0	14903.0	-5759941.0
16	14	46	14	42	118.0	6295.0	14414.0	-5759344.0
16	14	46	14	42	119.0	26534.0	14909.0	-5758624.0
16	14	46	14	43	120.0	48460.0	15014.0	-5759064.0
16	14	46	14	43	121.0	71625.0	15091.0	-5760195.0
16	14	46	14	43	122.0	83124.0	15568.0	-5759780.0
16	14	46	14	44	123.0	80907.0	16047.0	-5759076.0
16	14	46	14	44	124.0	81194.0	17115.0	-5759073.0
16	14	46	14	45	125.0	86579.0	18075.0	-5760202.0
16	14	46	14	45	126.0	99677.0	18571.0	-5759921.0
16	14	46	14	45	127.0	101920.0	18989.0	-5759182.0
16	14	46	14	46	129.0	106734.0	21356.0	-5760181.0
16	14	46	14	46	130.0	115209.0	20728.0	-5760209.0
16	14	46	14	46	131.0	121248.0	21309.0	-5759435.0
16	14	46	14	46	132.0	123248.0	22631.0	-5758844.0
16	14	46	14	47	133.0	125086.0	23836.0	-5759461.0
16	14	46	14	47	134.0	116178.0	24778.0	-5760277.0
16	14	46	14	67	135.0	94969.0	25413.0	-5759631.0
16	14	46	14	67	136.0	61914.0	26042.0	-5759000.0
16	14	46	14	83	137.0	24306.0	27647.0	-5759279.0
16	14	46	14	83	138.0	-10959.0	28322.0	-5760399.0
16	14	46	14	84	139.0	-49862.0	28851.0	-5759893.0
16	14	46	14	84	140.0	-72402.0	30018.0	-5759264.0
16	14	46	14	84	141.0	-82509.0	30766.0	-5759371.0
16	14	46	14	85	142.0	-76059.0	31661.0	-5760727.0
16	14	46	14	85	143.0	-62433.0	31845.0	-5760385.0
16	14	46	14	85	144.0	-44801.0	32268.0	-5759737.0
16	14	46	14	85	145.0	-25163.0	32766.0	-5759546.0
16	14	46	14	86	146.0	1558.0	33736.0	-5760875.0
16	14	46	14	86	147.0	31606.0	33665.0	-5760727.0
16	14	46	14	86	148.0	59264.0	33858.0	-5760010.0
16	14	46	14	86	149.0	95743.0	34286.0	-5759395.0
16	14	46	14	87	151.0	156598.0	35268.0	-5760209.0
16	14	46	14	87	152.0	191637.0	35814.0	-5759786.0
16	14	46	14	87	153.0	216191.0	35171.0	-5759444.0
16	14	46	14	88	154.0	230781.0	35031.0	-5760642.0
16	14	46	14	88	155.0	237276.0	35436.0	-5760726.0
16	14	46	14	88	156.0	223677.0	35626.0	-5760044.0
16	14	46	14	88	157.0	193265.0	35519.0	-5759696.0
16	14	46	14	111	158.0	155849.0	35418.0	-5760906.0
16	14	46	14	123	159.0	121649.0	35425.0	-5760984.0
16	14	46	14	123	160.0	95563.0	35922.0	-5760267.0
16	14	46	14	124	161.0	78409.0	36079.0	-5759652.0
16	14	46	14	124	162.0	56578.0	35849.0	-5759873.0
16	14	46	14	124	163.0	28438.0	34939.0	-5760919.0
16	14	46	14	125	164.0	11469.0	34075.0	-5760355.0
16	14	46	14	125	165.0	2878.0	33959.0	-5759744.0
16	14	46	14	125	166.0	-11726.0	33177.0	-5759317.0
16	14	46	14	126	167.0	-28939.0	32532.0	-5760045.0
16	14	46	14	157	168.0	-44607.0	31369.0	-5759704.0
16	14	46	14	175	169.0	-52249.0	30655.0	-5759241.0
16	14	46	14	175	170.0	-45242.0	30754.0	-5760368.0
16	14	46	14	176	171.0	-29244.0	30693.0	-5760942.0
16	14	46	14	176	172.0	-9642.0	29668.0	-5760284.0
16	14	46	14	176	174.0	-74002.0	27920.0	-5759611.0
16	14	46	14	177	175.0	-84567.0	26001.0	-5760286.0
16	14	46	14	177	176.0	-86844.0	24523.0	-5759789.0
16	14	46	14	177	177.0	-85636.0	23981.0	-5759820.0
16	14	46	14	178	178.0	-95494.0	23686.0	-5761141.0
16	14	46	14	178	179.0	-118237.0	23534.0	-5760829.0
16	14	46	14	178	180.0	-138940.0	22202.0	-5760099.0
16	14	46	14	179	181.0	-153106.0	21272.0	-5759554.0
16	14	46	14	179	182.0	-158941.0	20415.0	-5760222.0
16	14	46	14	180	183.0	-150816.0	18940.0	-5761092.0
16	14	46	14	180	196.0	-110486.0	6259.0	-5760532.0
16	14	46	14	180	197.0	106308.0	5406.0	-5759939.0
16	14	46	14	181	198.0	428418.0	4374.0	-5759442.0
16	14	46	14	181	199.0	694076.0	3769.0	-5760373.0
16	14	46	14	181	200.0	780442.0	3242.0	-5760422.0
16	14	46	14	182	201.0	772239.0	3303.0	-5759829.0
16	14	46	14	182	202.0	694463.0	2895.0	-5759968.0
16	14	46	14	202	203.0	555268.0	1983.0	-5761207.0
16	14	46	14	224	204.0	382021.0	1799.0	-5760701.0
16	14	46	14	224	205.0	199059.0	2363.0	-5760083.0
16	14	46	14	224	206.0	13680.0	1939.0	-5760262.0
16	14	46	14	225	207.0	-164126.0	1116.0	-5761612.0
16	14	46	14	225	208.0	-349250.0	623.0	-5761074.0
16	14	46	14	225	209.0	-500054.0	34.0	-5760447.0
16	14	46	14	226	210.0	-581607.0	-277.0	-5759782.0
16	14	46	14	226	211.0	-572507.0	-962.0	-5760779.0
16	14	46	14	226	212.0	-457412.0	-1609.0	-5761574.0
16	14	46	14	226	213.0	-288519.0	-1886.0	-5761002.0
16	14	46	14	227	214.0	-133404.0	-2401.0	-5760329.0
16	14	46	14	227	215.0	-15966.0	-2331.0	-5760462.0
16	14	46	14	244	216.0	64242.0	-3317.0	-5761719.0
16	14	46	14	244	217.0	108840.0	-3089.0	-5761361.0
16	14	46	14	245	219.0	108065.0	-2912.0	-5760675.0
16	14	46	14	245	226.0	-21884.0	-2945.0	-5760901.0
16	14	46	14	245	227.0	-34706.0	-3159.0	-5760302.0
16	14	46	14	246	228.0	-39971.0	-3605.0	-5761242.0
16	14	46	14	246	229.0	-50776.0	-3361.0	-5761579.0
16	14	46	14	246	230.0	-63164.0	-3044.0	-5760959.0
16	14	46	14	246	231.0	-73541.0	-2947.0	-5760277.0
16	14	46	14	247	232.0	-73885.0	-2869.0	-5760737.0
16	14	46	14	247	233.0	-61822.0	-2799.0	-5761654.0
16	14	46	14	247	234.0	-32851.0	-2534.0	-5761162.0
16	14	46	14	264	235.0	10361.0	-3835.0	-5760468.0
16	14	46	14	264	236.0	67572.0	-3939.0	-5760838.0
16	14	46	14	265	237.0	135396.0	-3383.0	-5761893.0
16	14	46	14	265	238.0	193515.0	-3565.0	-5761459.0
16	14	46	14	266	239.0	219898.0	-3612.0	-5760735.0
16	14	46	14	266	240.0	221435.0	-3920.0	-5760478.0
16	14	46	14	266	241.0	206608.0	-4069.0	-5761611.0
16	14	46	14	267	242.0	183660.0	-4614.0	-5761633.0
16	14	46	14	267	243.0	155696.0	-5694.0	-5760906.0
16	14	46	14	267	244.0	110155.0	-5287.0	-5760437.0
16	14	46	14	268	245.0	52043.0	-4589.0	-5761512.0
16	14	46	14	268	246.0	-9634.0	-5104.0	-5762069.0
16	14	46	14	268	247.0	-68889.0	-5356.0	-5761336.0
16	14	46	14	268	248.0	-114520.0	-5169.0	-5760749.0
16	14	46	14	269	249.0	-147382.0	-5125.0	-5761229.0
16	14	46	14	269	250.0	-164902.0	-6028.0	-5762099.0
16	14	46	14	285	251.0	-157509.0	-5776.0	-5761489.0
16	14	46	14	285	252.0	-120414.0	-5147.0	-5760874.0
16	14	46	14	286	253.0	-76775.0	-4244.0	-5760886.0
16	14	46	14	286	254.0	-23440.0	-4642.0	-5762036.0
16	14	46	14	286	255.0	40939.0	-4259.0	-5761604.0
16	14	46	14	287	0.0	90763.0	-4862.0	-5760939.0
16	14	46	14	287	1.0	115113.0	-5212.0	-5761153.0
16	14	46	14	308	2.0	117786.0	-5518.0	-5762466.0
16	14	46	14	308	3.0	112991.0	-4959.0	-5761984.0
16	14	46	14	309	4.0	95497.0	-4063.0	-5761291.0
16	14	46	14	309	5.0	67877.0	-4400.0	-5760702.0
16	14	46	14	309	6.0	37901.0	-4341.0	-5761322.0
16	14	46	14	310	7.0	11899.0	-3727.0	-5762115.0
16	14	46	14	310	8.0	-12706.0	-3414.0	-5761466.0
16	14	46	14	310	9.0	-28452.0	-4590.0	-5760885.0
16	14	46	14	311	10.0	-39531.0	-5424.0	-5761589.0
16	14	46	14	311	11.0	-49302.0	-4580.0	-5762500.0
16	14	46	14	328	12.0	-53837.0	-4007.0	-5761855.0
16	14	46	14	329	13.0	-58789.0	-4267.0	-5761211.0
16	14	46	14	329	14.0	-48571.0	-3826.0	-5760977.0
16	14	46	14	330	15.0	-26853.0	-3744.0	-5761626.0
16	14	46	14	330	16.0	9139.0	-3919.0	-5761135.0
16	14	46	14	330	17.0	48079.0	-4167.0	-5760716.0
16	14	46	14	330	18.0	73952.0	-3804.0	-5761848.0
16	14	46	14	331	19.0	108870.0	-3140.0	-5762068.0
16	14	46	14	331	20.0	144131.0	-3154.0	-5761321.0
16	14	46	14	331	21.0	172224.0	-3389.0	-5760761.0
16	14	46	14	332	22.0	184192.0	-3557.0	-5761387.0
16	14	46	14	332	23.0	176871.0	-3496.0	-5762446.0
16	14	46	14	332	24.0	151027.0	-3950.0	-5761817.0
16	14	46	14	349	25.0	118391.0	-3787.0	-5761196.0
16	14	46	14	349	26.0	78317.0	-3193.0	-5760727.0
16	14	46	14	349	27.0	43734.0	-2842.0	-5761536.0
16	14	46	14	350	28.0	26059.0	-3200.0	-5761360.0
16	14	46	14	350	29.0	3105.0	-2693.0	-5760867.0
16	14	46	14	350	30.0	-13626.0	-2579.0	-5761683.0
16	14	46	14	351	31.0	-23508.0	-3114.0	-5762231.0
16	14	46	14	369	32.0	-28165.0	-3696.0	-5761488.0
16	14	46	14	369	33.0	-28301.0	-3409.0	-5760872.0
16	14	46	14	370	34.0	-30840.0	-2678.0	-5760894.0
16	14	46	14	370	35.0	-37285.0	-2617.0	-5762131.0
16	14	46	14	370	36.0	-56169.0	-2521.0	-5761637.0
16	14	46	14	371	37.0	-78667.0	-2596.0	-5761015.0
16	14	46	14	371	38.0	-97467.0	-2951.0	-5760430.0
16	14	46	14	371	39.0	-114732.0	-3426.0	-5761183.0
16	14	46	14	372	40.0	-126136.0	-3444.0	-5761281.0
16	14	46	14	372	41.0	-117340.0	-2691.0	-5760705.0
16	14	46	14	372	42.0	-95912.0	-1414.0	-5760834.0
16	14	46	14	373	43.0	-89262.0	-1199.0	-5762063.0
16	14	46	14	373	44.0	-81753.0	-1259.0	-5761608.0
16	14	46	14	373	45.0	-65764.0	-1736.0	-5761020.0
16	14	46	14	373	46.0	-35194.0	-2347.0	-5760863.0
16	14	46	14	391	47.0	2648.0	-3994.0	-5762301.0
16	14	46	14	391	48.0	38625.0	-3945.0	-5762048.0
16	14	46	14	391	49.0	60152.0	-3287.0	-5761431.0
16	14	46	14	392	50.0	71799.0	-3907.0	-5760760.0
16	14	46	14	392	51.0	75519.0	-4022.0	-5761392.0
16	14	46	14	392	52.0	66876.0	-4314.0	-5761871.0
16	14	46	14	393	53.0	57988.0	-4460.0	-5761232.0
16	14	46	14	393	54.0	36433.0	-5426.0	-5760595.0
16	14	46	14	411	55.0	17928.0	-5626.0	-5761170.0
16	14	46	14	411	56.0	11166.0	-5014.0	-5762065.0
16	14	46	14	411	57.0	16406.0	-4451.0	-5761481.0
16	14	46	14	412	58.0	33399.0	-4436.0	-5760872.0
16	14	46	14	412	59.0	52531.0	-4583.0	-5761161.0
16	14	46	14	412	60.0	64474.0	-4440.0	-5761541.0
16	14	46	14	413	61.0	64293.0	-4804.0	-5760944.0
16	14	46	14	430	62.0	58519.0	-5027.0	-5761066.0
16	14	46	14	430	63.0	44413.0	-4899.0	-5762222.0
16	14	46	14	431	64.0	23170.0	-3576.0	-5761774.0
16	14	46	14	431	65.0	-2712.0	-3738.0	-5761136.0
16	14	46	14	431	66.0	-25092.0	-3933.0	-5760456.0
16	14	46	14	432	67.0	-42969.0	-3876.0	-5760631.0
16	14	46	14	432	68.0	-61141.0	-4398.0	-5761313.0
16	14	46	14	450	69.0	-72649.0	-4846.0	-5760764.0
16	14	46	14	450	70.0	-76009.0	-4794.0	-5760388.0
16	14	46	14	451	71.0	-71652.0	-4352.0	-5761611.0
16	14	46	14	451	72.0	-68225.0	-3904.0	-5761663.0
16	14	46	14	451	73.0	-68645.0	-4291.0	-5760992.0
16	14	46	14	452	74.0	-64239.0	-4726.0	-5760513.0
16	14	46	14	452	75.0	-44104.0	-4495.0	-5761711.0
16	14	46	14	452	76.0	-25870.0	-4374.0	-5762258.0
16	14	46	14	453	77.0	-3601.0	-4924.0	-5761566.0
16	14	46	14	453	78.0	26277.0	-5388.0	-5760949.0
16	14	46	14	453	79.0	53243.0	-5682.0	-5761526.0
16	14	46	14	454	80.0	66332.0	-5722.0	-5762501.0
16	14	46	14	454	81.0	70403.0	-5904.0	-5761886.0
16	14	46	14	454	82.0	66571.0	-6309.0	-5761266.0
16	14	46	14	470	83.0	60431.0	-6284.0	-5760818.0
16	14	46	14	471	84.0	57228.0	-6937.0	-5761657.0
16	14	46	14	471	85.0	56605.0	-7141.0	-5761387.0
16	14	46	14	471	86.0	49383.0	-7104.0	-5760793.0
16	14	46	14	471	87.0	42610.0	-7467.0	-5761164.0
16	14	46	14	472	88.0	33060.0	-7812.0	-5762176.0
16	14	46	14	472	89.0	30666.0	-7949.0	-5761581.0
16	14	46	14	472	90.0	40611.0	-7786.0	-5760991.0
16	14	46	14	472	91.0	56421.0	-8261.0	-5761344.0
16	14	46	14	473	92.0	78548.0	-8434.0	-5762599.0
16	14	46	14	491	93.0	96960.0	-8711.0	-5762081.0
16	14	46	14	491	94.0	102003.0	-8898.0	-5761461.0
16	14	46	14	492	95.0	101390.0	-9145.0	-5761074.0
16	14	46	14	492	96.0	93481.0	-9338.0	-5762047.0
16	14	46	14	492	97.0	86429.0	-9962.0	-5761784.0
16	14	46	14	493	98.0	81704.0	-10317.0	-5761151.0
16	14	46	14	493	99.0	70224.0	-11239.0	-5761297.0
16	14	46	14	493	100.0	53437.0	-11060.0	-5762271.0
16	14	46	14	493	101.0	29881.0	-11310.0	-5761685.0
16	14	46	14	494	102.0	3484.0	-10918.0	-5761074.0
16	14	46	14	494	103.0	-26311.0	-11023.0	-5760641.0
16	14	46	14	494	104.0	-55864.0	-11407.0	-5761585.0
16	14	46	14	495	105.0	-83493.0	-11742.0	-5761411.0
16	14	46	14	495	106.0	-108464.0	-12608.0	-5760940.0
16	14	46	14	513	107.0	-120452.0	-13723.0	-5761963.0
16	14	46	14	513	108.0	-119796.0	-13296.0	-5762499.0
16	14	46	14	514	109.0	-107943.0	-13181.0	-5761786.0
16	14	46	14	514	110.0	-100191.0	-13789.0	-5761200.0
16	14	46	14	514	111.0	-83594.0	-14415.0	-5761666.0
16	14	46	14	515	112.0	-66340.0	-14256.0	-5762878.0
16	14	46	14	515	113.0	-52589.0	-14311.0	-5762272.0
16	14	46	14	535	114.0	-34064.0	-14847.0	-5761656.0
16	14	46	14	535	115.0	-20768.0	-14547.0	-5761067.0
16	14	46	14	535	116.0	-12368.0	-14012.0	-5761699.0
16	14	46	14	536	117.0	-9746.0	-14286.0	-5761601.0
16	14	46	14	536	118.0	-1343.0	-14491.0	-5761024.0
16	14	46	14	536	119.0	13506.0	-14658.0	-5761477.0
16	14	46	14	537	120.0	24717.0	-15139.0	-5762398.0
16	14	46	14	537	121.0	42648.0	-15971.0	-5761740.0
16	14	46	14	558	122.0	56516.0	-16647.0	-5761152.0
16	14	46	14	558	123.0	46424.0	-16272.0	-5761646.0
16	14	46	14	559	124.0	37668.0	-15772.0	-5762544.0
16	14	46	14	559	125.0	56823.0	-15960.0	-5761877.0
16	14	46	14	559	126.0	82850.0	-15756.0	-5761271.0
16	14	46	14	560	127.0	96086.0	-15508.0	-5760925.0
16	14	46	14	560	128.0	83593.0	-15413.0	-5762158.0
16	14	46	14	560	129.0	66386.0	-15639.0	-5762031.0
16	14	46	14	561	130.0	64181.0	-15524.0	-5761419.0
16	14	46	14	561	131.0	77827.0	-15746.0	-5760777.0
16	14	46	14	561	132.0	98114.0	-15276.0	-5761654.0
16	14	46	14	579	133.0	116156.0	-15264.0	-5762376.0
16	14	46	14	579	134.0	131446.0	-15403.0	-5761765.0
16	14	46	14	580	135.0	120300.0	-15512.0	-5761089.0
16	14	46	14	580	136.0	91165.0	-15811.0	-5761165.0
16	14	46	14	581	137.0	49852.0	-15929.0	-5762379.0
16	14	46	14	581	138.0	8336.0	-15331.0	-5761980.0
16	14	46	14	581	139.0	-30461.0	-15064.0	-5761367.0
16	14	46	14	582	140.0	-64089.0	-14696.0	-5761974.0
16	14	46	14	582	141.0	-97736.0	-14064.0	-5762933.0
16	14	46	14	582	142.0	-123719.0	-12374.0	-5762379.0
16	14	46	14	583	143.0	-140959.0	-11347.0	-5761713.0
16	14	46	14	583	144.0	-154122.0	-10692.0	-5761186.0
16	14	46	14	583	145.0	-159261.0	-9837.0	-5762216.0
16	14	46	14	583	146.0	-151961.0	-9493.0	-5762639.0
16	14	46	14	584	147.0	-147656.0	-9482.0	-5761985.0
16	14	46	14	584	148.0	-152408.0	-9071.0	-5761275.0
16	14	46	14	584	149.0	-134545.0	-9244.0	-5761914.0
16	14	46	14	585	150.0	-87666.0	-9468.0	-5762811.0
16	14	46	14	585	151.0	-30252.0	-9847.0	-5762294.0
16	14	46	14	585	152.0	24374.0	-9804.0	-5761566.0
16	14	46	14	600	153.0	61229.0	-9628.0	-5761639.0
16	14	46	14	600	154.0	79870.0	-9099.0	-5762897.0
16	14	46	14	600	155.0	91260.0	-8626.0	-5762644.0
16	14	46	14	601	156.0	99642.0	-9214.0	-5761918.0
16	14	46	14	601	157.0	114613.0	-9903.0	-5761890.0
16	14	46	14	601	158.0	133351.0	-9925.0	-5763226.0
16	14	46	14	620	159.0	144520.0	-11072.0	-5763067.0
16	14	46	14	620	160.0	142819.0	-11434.0	-5762317.0
16	14	46	14	621	161.0	136151.0	-11107.0	-5761997.0
16	14	46	14	621	162.0	118914.0	-10671.0	-5763063.0
16	14	46	14	621	163.0	93196.0	-11286.0	-5763146.0
16	14	46	14	621	164.0	70598.0	-11785.0	-5762389.0
16	14	46	14	622	165.0	54266.0	-11479.0	-5761814.0
16	14	46	14	622	166.0	41084.0	-12432.0	-5762534.0
16	14	46	14	641	167.0	27071.0	-13484.0	-5763492.0
16	14	46	14	642	168.0	8813.0	-13407.0	-5762824.0
16	14	46	14	642	169.0	863.0	-12542.0	-5762195.0
16	14	46	14	642	170.0	478.0	-12599.0	-5762188.0
16	14	46	14	643	171.0	6069.0	-12454.0	-5763674.0
16	14	46	14	643	172.0	14040.0	-12991.0	-5763359.0
16	14	46	14	643	173.0	22271.0	-13827.0	-5762737.0
16	14	46	14	644	174.0	29115.0	-14736.0	-5762402.0
16	14	46	14	644	175.0	35482.0	-14837.0	-5763717.0
16	14	46	14	644	176.0	28801.0	-14369.0	-5763637.0
16	14	46	14	645	177.0	23268.0	-14394.0	-5762997.0
16	14	46	14	645	178.0	27454.0	-14050.0	-5762347.0
16	14	46	14	645	179.0	13205.0	-14041.0	-5762592.0
16	14	46	14	646	180.0	-916.0	-14168.0	-5763150.0
16	14	46	14	646	181.0	-2356.0	-14760.0	-5762565.0
16	14	46	14	663	182.0	8439.0	-15522.0	-5762312.0
16	14	46	14	664	183.0	22034.0	-14906.0	-5763612.0
16	14	46	14	664	184.0	36962.0	-13759.0	-5763439.0
16	14	46	14	665	185.0	39161.0	-13936.0	-5762766.0
16	14	46	14	665	186.0	30886.0	-14124.0	-5762422.0
16	14	46	14	666	187.0	15038.0	-14314.0	-5763719.0
16	14	46	14	666	188.0	-2809.0	-14421.0	-5763781.0
16	14	46	14	684	189.0	-21858.0	-15304.0	-5763086.0
16	14	46	14	684	190.0	-35549.0	-15282.0	-5762547.0
16	14	46	14	685	191.0	-47318.0	-14897.0	-5763552.0
16	14	46	14	685	192.0	-51066.0	-15270.0	-5763995.0
16	14	46	14	686	193.0	-48474.0	-16312.0	-5763297.0
16	14	46	14	686	194.0	-37607.0	-17348.0	-5762614.0
16	14	46	14	687	195.0	-23738.0	-18362.0	-5762354.0
16	14	46	14	687	196.0	-7459.0	-19801.0	-5763241.0
16	14	46	14	688	197.0	10490.0	-20760.0	-5762847.0
16	14	46	14	688	198.0	34423.0	-20881.0	-5762382.0
16	14	46	14	689	199.0	58389.0	-20674.0	-5763353.0
16	14	46	14	689	200.0	86306.0	-21355.0	-5763684.0
16	14	46	14	689	201.0	107461.0	-21555.0	-5763014.0
16	14	46	14	707	202.0	117756.0	-21332.0	-5762502.0
16	14	46	14	707	203.0	111629.0	-21106.0	-5763410.0
16	14	46	14	707	204.0	102283.0	-21661.0	-5764062.0
16	14	46	14	708	205.0	85483.0	-21285.0	-5763379.0
16	14	46	14	708	206.0	64733.0	-20567.0	-5762774.0
16	14	46	14	708	207.0	45808.0	-20216.0	-5762491.0
16	14	46	14	708	208.0	28964.0	-20020.0	-5763519.0
16	14	46	14	708	209.0	10017.0	-20234.0	-5763211.0
16	14	46	14	709	210.0	-4862.0	-19627.0	-5762616.0
16	14	46	14	709	211.0	-19261.0	-19821.0	-5763315.0
16	14	46	14	728	212.0	-35139.0	-19412.0	-5764036.0
16	14	46	14	728	213.0	-40791.0	-18569.0	-5763367.0
16	14	46	14	729	214.0	-33809.0	-17313.0	-5762723.0
16	14	46	14	729	215.0	-19648.0	-16691.0	-5762618.0
16	14	46	14	729	216.0	-5167.0	-16922.0	-5764027.0
16	14	46	14	729	217.0	5873.0	-17143.0	-5763678.0
16	14	46	14	730	218.0	18078.0	-17261.0	-5763082.0
16	14	46	14	730	219.0	34308.0	-18070.0	-5763269.0
16	14	46	14	730	220.0	44740.0	-17771.0	-5764525.0
16	14	46	14	730	221.0	43743.0	-17166.0	-5764041.0
16	14	46	14	730	222.0	33233.0	-16619.0	-5763448.0
16	14	46	14	731	223.0	22172.0	-16071.0	-5762866.0
16	14	46	14	731	224.0	13272.0	-15862.0	-5763729.0
16	14	46	14	731	225.0	10471.0	-15312.0	-5763893.0
16	14	46	14	732	226.0	14037.0	-15536.0	-5763313.0
16	14	46	14	749	227.0	24345.0	-15482.0	-5762767.0
16	14	46	14	749	228.0	31874.0	-15216.0	-5763760.0
16	14	46	14	749	229.0	34568.0	-14226.0	-5763859.0
16	14	46	14	750	230.0	33063.0	-14263.0	-5763262.0
16	14	46	14	750	231.0	29163.0	-14119.0	-5763157.0
16	14	46	14	750	232.0	29069.0	-13154.0	-5764549.0
16	14	46	14	750	233.0	28243.0	-13118.0	-5764191.0
16	14	46	14	771	234.0	23998.0	-13012.0	-5763571.0
16	14	46	14	771	235.0	3839.0	-12251.0	-5763063.0
16	14	46	14	771	236.0	-15216.0	-10975.0	-5763817.0
16	14	46	14	772	237.0	-24408.0	-10798.0	-5763682.0
16	14	46	14	772	238.0	-33635.0	-10793.0	-5763131.0
16	14	46	14	772	239.0	-43482.0	-10554.0	-5763952.0
16	14	46	14	773	240.0	-45891.0	-10207.0	-5765021.0
16	14	46	14	773	241.0	-46212.0	-10839.0	-5764346.0
16	14	46	14	774	242.0	-41048.0	-10663.0	-5763731.0
16	14	46	14	774	243.0	-37798.0	-10404.0	-5763165.0
16	14	46	14	774	244.0	-38253.0	-9182.0	-5763892.0
16	14	46	14	775	245.0	-41534.0	-8512.0	-5763809.0
16	14	46	14	775	246.0	-37459.0	-8555.0	-5763195.0
16	14	46	14	775	247.0	-25059.0	-8586.0	-5763236.0
16	14	46	14	776	248.0	-14961.0	-8471.0	-5764262.0
16	14	46	14	793	249.0	-6738.0	-8618.0	-5763746.0
16	14	46	14	794	250.0	411.0	-7538.0	-5763247.0
16	14	46	14	794	251.0	13310.0	-4301.0	-5764054.0
16	14	46	14	794	252.0	23245.0	71.0	-5764831.0
16	14	46	14	795	253.0	32019.0	3404.0	-5764147.0
16	14	46	14	795	254.0	39891.0	6154.0	-5763535.0
16	14	46	14	795	255.0	53773.0	8059.0	-5763003.0
16	14	46	14	795	0.0	71244.0	8779.0	-5763791.0
16	14	46	14	816	1.0	86356.0	9572.0	-5763776.0
16	14	46	14	817	2.0	102982.0	10481.0	-5763247.0
16	14	46	14	817	3.0	120149.0	11749.0	-5764050.0
16	14	46	14	817	4.0	130398.0	11758.0	-5764859.0
16	14	46	14	817	5.0	137986.0	12268.0	-5764181.0
16	14	46	14	818	6.0	142478.0	11770.0	-5763553.0
16	14	46	14	818	7.0	140311.0	10909.0	-5763432.0
16	14	46	14	818	8.0	129551.0	10168.0	-5764608.0
16	14	46	14	840	9.0	104914.0	10219.0	-5764217.0
16	14	46	14	840	10.0	73363.0	11047.0	-5763587.0
16	14	46	14	840	11.0	42996.0	10309.0	-5763628.0
16	14	46	14	840	12.0	13812.0	9574.0	-5764762.0
16	14	46	14	841	13.0	-4072.0	9435.0	-5764318.0
16	14	46	14	841	14.0	-13630.0	8531.0	-5763651.0
16	14	46	14	841	15.0	-24669.0	7439.0	-5763366.0
16	14	46	14	841	16.0	-29631.0	7216.0	-5764548.0
16	14	46	14	842	17.0	-19052.0	7144.0	-5764380.0
16	14	46	14	842	18.0	419.0	7523.0	-5763731.0
16	14	46	14	842	19.0	25948.0	6993.0	-5763051.0
16	14	46	14	842	20.0	45325.0	6222.0	-5763219.0
16	14	46	14	862	21.0	47271.0	5851.0	-5763862.0
16	14	46	14	863	22.0	35414.0	5219.0	-5763331.0
16	14	46	14	863	23.0	10625.0	4344.0	-5763046.0
16	14	46	14	863	24.0	-28197.0	4639.0	-5764061.0
16	14	46	14	864	25.0	-40438.0	5160.0	-5763819.0
16	14	46	14	864	26.0	42968.0	5084.0	-5763132.0
16	14	46	14	864	27.0	11828.0	4784.0	-5762882.0
16	14	46	14	864	28.0	-1502.0	4058.0	-5764259.0
16	14	46	14	865	29.0	32347.0	3719.0	-5764290.0
16	14	46	14	865	30.0	38780.0	2709.0	-5763600.0
16	14	46	14	865	31.0	23186.0	2091.0	-5763134.0
16	14	46	14	865	32.0	-10488.0	2139.0	-5764281.0
16	14	46	14	866	33.0	-43575.0	2774.0	-5764659.0
16	14	46	14	866	34.0	-67879.0	2789.0	-5763957.0
16	14	46	14	885	35.0	-93367.0	2155.0	-5763324.0
16	14	46	14	885	36.0	-114895.0	2131.0	-5763042.0
16	14	46	14	886	37.0	-129117.0	1695.0	-5764091.0
16	14	46	14	886	38.0	-124294.0	1136.0	-5763789.0
16	14	46	14	886	39.0	-108180.0	1734.0	-5763233.0
16	14	46	14	886	40.0	-93455.0	1216.0	-5763589.0
16	14	46	14	887	41.0	-77677.0	536.0	-5764516.0
16	14	46	14	887	42.0	-53917.0	582.0	-5763931.0
16	14	46	14	887	43.0	-18407.0	148.0	-5763392.0
16	14	46	14	887	44.0	31387.0	-315.0	-5764157.0
16	14	46	14	888	45.0	90674.0	-526.0	-5764881.0
16	14	46	14	907	46.0	142889.0	-393.0	-5764206.0
16	14	46	14	907	47.0	159217.0	-349.0	-5763596.0
16	14	46	14	908	48.0	169597.0	258.0	-5763383.0
16	14	46	14	908	49.0	137355.0	820.0	-5764253.0
16	14	46	14	908	50.0	109443.0	469.0	-5763851.0
16	14	46	14	908	51.0	93737.0	108.0	-5763239.0
16	14	46	14	909	52.0	51462.0	-205.0	-5763629.0
16	14	46	14	909	53.0	-78637.0	-890.0	-5764704.0
16	14	46	14	909	54.0	-295961.0	-881.0	-5764090.0
16	14	46	14	929	55.0	-515549.0	-1777.0	-5763442.0
16	14	46	14	929	56.0	-660877.0	-3822.0	-5763036.0
16	14	46	14	929	57.0	-706801.0	-4684.0	-5763929.0
16	14	46	14	929	58.0	-641407.0	-4977.0	-5763637.0
16	14	46	14	930	59.0	-514874.0	-5336.0	-5763147.0
16	14	46	14	930	60.0	-378464.0	-5987.0	-5764042.0
16	14	46	14	930	61.0	-241156.0	-5789.0	-5764655.0
16	14	46	14	930	62.0	-93746.0	-5392.0	-5763973.0
16	14	46	14	931	63.0	84522.0	-5189.0	-5763402.0
16	14	46	14	931	64.0	263285.0	-5186.0	-5763725.0
16	14	46	14	931	65.0	404988.0	-5192.0	-5764986.0
16	14	46	14	931	66.0	479315.0	-5196.0	-5764442.0
16	14	46	14	932	67.0	485480.0	-5472.0	-5763811.0
16	14	46	14	950	68.0	461892.0	-5787.0	-5763216.0
16	14	46	14	973	69.0	419591.0	-5060.0	-5763871.0
16	14	46	14	973	70.0	359198.0	-3794.0	-5763794.0
16	14	46	14	974	71.0	286253.0	-3309.0	-5763198.0
16	14	46	14	974	72.0	203702.0	-3097.0	-5763660.0
16	14	46	14	974	73.0	95978.0	-3128.0	-5764580.0
16	14	46	14	974	74.0	-25084.0	-3170.0	-5763906.0
16	14	46	14	975	75.0	-152474.0	-2837.0	-5763281.0
16	14	46	14	975	76.0	-272263.0	-2319.0	-5763232.0
16	14	46	14	975	77.0	-356759.0	-2101.0	-5764632.0
16	14	46	14	976	78.0	-390992.0	-1851.0	-5764275.0
16	14	46	14	976	79.0	-370457.0	-738.0	-5763679.0
16	14	46	14	976	80.0	-313282.0	-794.0	-5763114.0
16	14	46	14	976	81.0	-220720.0	-581.0	-5763737.0
16	14	46	14	977	82.0	-116605.0	-846.0	-5763656.0
16	14	46	14	977	83.0	-19692.0	-1047.0	-5763103.0
16	14	46	14	977	84.0	54861.0	-209.0	-5763624.0
16	14	46	14	977	85.0	117293.0	316.0	-5764620.0
16	14	46	14	978	86.0	165577.0	893.0	-5763989.0
16	14	46	14	978	87.0	197866.0	1747.0	-5763352.0
16	14	46	14	978	88.0	202570.0	2938.0	-5762997.0
16	14	46	14	998	89.0	177210.0	3304.0	-5764272.0
16	14	46	14	999	90.0	139106.0	2803.0	-5764175.0
16	14	46	14	999	91.0	100782.0	3829.0	-5763570.0
16	14	46	14	999	92.0	70954.0	4216.0	-5763118.0
16	14	46	14	999	93.0	40590.0	4114.0	-5764236.0
16	14	46	15	0	94.0	6589.0	3784.0	-5764229.0
16	14	46	15	0	95.0	-34321.0	3942.0	-5763586.0
16	14	46	15	0	96.0	-82654.0	3776.0	-5763052.0
16	14	46	15	0	97.0	-136921.0	4057.0	-5764132.0
16	14	46	15	1	98.0	-183459.0	4141.0	-5764597.0
16	14	46	15	1	99.0	-203907.0	4146.0	-5763919.0
16	14	46	15	1	100.0	-200099.0	4334.0	-5763269.0
16	14	46	15	1	101.0	-182759.0	4848.0	-5763441.0
16	14	46	15	2	102.0	-154739.0	5205.0	-5764106.0
16	14	46	15	2	103.0	-118426.0	5063.0	-5763540.0
16	14	46	15	24	104.0	-81151.0	5526.0	-5762955.0
16	14	46	15	25	105.0	-42790.0	5360.0	-5763769.0
16	14	46	15	25	106.0	-5219.0	6128.0	-5764266.0
16	14	46	15	25	107.0	26992.0	7254.0	-5763664.0
16	14	46	15	26	108.0	56963.0	7060.0	-5763078.0
16	14	46	15	26	109.0	83005.0	6845.0	-5764037.0
16	14	46	15	26	110.0	96523.0	6388.0	-5764663.0
16	14	46	15	26	111.0	100048.0	6354.0	-5764028.0
16	14	46	15	27	112.0	94939.0	5319.0	-5763401.0
16	14	46	15	54	113.0	88504.0	4948.0	-5763774.0
16	14	46	15	54	114.0	87751.0	5774.0	-5764421.0
16	14	46	15	54	115.0	95924.0	6935.0	-5763843.0
16	14	46	15	54	116.0	104918.0	5010.0	-5763187.0
16	14	46	15	55	117.0	107558.0	2389.0	-5763706.0
16	14	46	15	55	118.0	101154.0	212.0	-5764557.0
16	14	46	15	55	119.0	86556.0	-941.0	-5763947.0
16	14	46	15	55	120.0	63565.0	-3085.0	-5763299.0
16	14	46	15	56	121.0	31511.0	-4056.0	-5763560.0
16	14	46	15	56	122.0	2103.0	-3718.0	-5764661.0
16	14	46	15	56	123.0	-19019.0	-3972.0	-5764173.0
16	14	46	15	56	124.0	-31239.0	-4126.0	-5763511.0
16	14	46	15	57	125.0	-37881.0	-3980.0	-5763616.0
16	14	46	15	57	126.0	-38311.0	-3806.0	-5764180.0
16	14	46	15	57	127.0	-45572.0	-4331.0	-5763616.0
16	14	46	15	84	128.0	-58361.0	-4299.0	-5762957.0
16	14	46	15	84	129.0	-65202.0	-3307.0	-5763607.0
16	14	46	15	85	130.0	-60970.0	-2203.0	-5764628.0
16	14	46	15	85	131.0	-56149.0	-1230.0	-5764024.0
16	14	46	15	85	132.0	-58957.0	-784.0	-5763349.0
16	14	46	15	85	133.0	-58167.0	47.0	-5763222.0
16	14	46	15	86	134.0	-52028.0	373.0	-5764777.0
16	14	46	15	86	135.0	-52432.0	619.0	-5764554.0
16	14	46	15	86	136.0	-55856.0	1768.0	-5763913.0
16	14	46	15	86	137.0	-62804.0	3146.0	-5763380.0
16	14	46	15	87	138.0	-58509.0	3811.0	-5764682.0
16	14	46	15	87	139.0	-38818.0	4443.0	-5765058.0
16	14	46	15	87	140.0	-5809.0	5299.0	-5764448.0
16	14	46	15	87	141.0	24471.0	6371.0	-5763804.0
16	14	46	15	88	142.0	64176.0	7017.0	-5764632.0
16	14	46	15	115	143.0	110070.0	7746.0	-5765211.0
16	14	46	15	115	144.0	149585.0	9571.0	-5764631.0
16	14	46	15	116	145.0	178860.0	11764.0	-5763927.0
16	14	46	15	116	146.0	191656.0	12912.0	-5764434.0
16	14	46	15	116	147.0	182073.0	14598.0	-5765623.0
16	14	46	15	117	148.0	157426.0	16291.0	-5765186.0
16	14	46	15	117	149.0	125881.0	17578.0	-5764459.0
16	14	46	15	117	150.0	85796.0	18408.0	-5764031.0
16	14	46	15	118	151.0	44208.0	20244.0	-5765193.0
16	14	46	15	118	152.0	8595.0	23174.0	-5765606.0
16	14	46	15	118	153.0	-23539.0	25501.0	-5764893.0
16	14	46	15	118	154.0	-47242.0	27123.0	-5764377.0
16	14	46	15	119	155.0	-46609.0	29118.0	-5765376.0
16	14	46	15	119	156.0	-35939.0	31404.0	-5765849.0
16	14	46	15	119	157.0	-19362.0	33002.0	-5765169.0
16	14	46	15	149	158.0	6020.0	34296.0	-5764590.0
16	14	46	15	149	159.0	18668.0	36241.0	-5765307.0
16	14	46	15	149	160.0	31227.0	38499.0	-5766173.0
16	14	46	15	150	161.0	51030.0	40309.0	-5765536.0
16	14	46	15	150	162.0	66974.0	41832.0	-5764858.0
16	14	46	15	150	163.0	74730.0	43312.0	-5764731.0
16	14	46	15	150	164.0	93157.0	44792.0	-5765990.0
16	14	46	15	151	165.0	109340.0	45426.0	-5765787.0
16	14	46	15	151	166.0	118316.0	47229.0	-5765066.0
16	14	46	15	151	167.0	119271.0	49822.0	-5764565.0
16	14	46	15	151	168.0	107129.0	51475.0	-5765425.0
16	14	46	15	152	169.0	78009.0	52326.0	-5766042.0
16	14	46	15	152	170.0	45658.0	53440.0	-5765355.0
16	14	46	15	152	171.0	11401.0	54668.0	-5764900.0
16	14	46	15	152	172.0	-18097.0	54916.0	-5766042.0
16	14	46	15	153	173.0	-44616.0	55811.0	-5766669.0
16	14	46	15	153	174.0	-60940.0	57035.0	-5765969.0
16	14	46	15	153	175.0	-59317.0	58323.0	-5765376.0
16	14	46	15	153	176.0	-54450.0	59000.0	-5765506.0
16	14	46	15	154	177.0	-53909.0	60346.0	-5766692.0
16	14	46	15	154	178.0	-64508.0	61041.0	-5766182.0
16	14	46	15	154	179.0	-82590.0	60908.0	-5765557.0
16	14	46	15	178	180.0	-99263.0	60306.0	-5764981.0
16	14	46	15	179	181.0	-108956.0	60415.0	-5765702.0
16	14	46	15	179	182.0	-113577.0	60218.0	-5765778.0
16	14	46	15	179	183.0	-112609.0	53464.0	-5765212.0
16	14	46	15	180	184.0	-108447.0	41989.0	-5765767.0
16	14	46	15	180	185.0	-93531.0	32494.0	-5767512.0
16	14	46	15	180	186.0	-62541.0	25620.0	-5767070.0
16	14	46	15	180	187.0	-22893.0	19325.0	-5766472.0
16	14	46	15	181	188.0	18659.0	15051.0	-5765938.0
16	14	46	15	181	189.0	58510.0	12533.0	-5766729.0
16	14	46	15	181	190.0	96392.0	11416.0	-5766675.0
16	14	46	15	181	191.0	126474.0	10043.0	-5766072.0
16	14	46	15	207	192.0	150059.0	9201.0	-5766607.0
16	14	46	15	208	193.0	167884.0	8335.0	-5767618.0
16	14	46	15	208	194.0	172264.0	7791.0	-5766990.0
16	14	46	15	208	195.0	162680.0	6929.0	-5766380.0
16	14	46	15	209	196.0	139496.0	6908.0	-5765747.0
16	14	46	15	209	197.0	114215.0	8125.0	-5766437.0
16	14	46	15	209	198.0	94217.0	8218.0	-5766511.0
16	14	46	15	209	199.0	77648.0	8099.0	-5765892.0
16	14	46	15	210	200.0	67584.0	8356.0	-5765693.0
16	14	46	15	210	201.0	40753.0	8691.0	-5767037.0
16	14	46	15	210	202.0	1237.0	8544.0	-5766757.0
16	14	46	15	211	203.0	-32492.0	8793.0	-5766162.0
16	14	46	15	211	204.0	-60556.0	9766.0	-5766334.0
16	14	46	15	233	205.0	-86338.0	10783.0	-5767607.0
16	14	46	15	234	206.0	-101214.0	11479.0	-5767101.0
16	14	46	15	234	207.0	-100264.0	11783.0	-5766487.0
16	14	46	15	234	208.0	-97989.0	11203.0	-5765960.0
16	14	46	15	235	209.0	-97145.0	10878.0	-5766861.0
16	14	46	15	235	210.0	-94841.0	9703.0	-5766884.0
16	14	46	15	235	211.0	-90388.0	10127.0	-5766273.0
16	14	46	15	236	212.0	-98939.0	11052.0	-5766061.0
16	14	46	15	236	213.0	-120286.0	11401.0	-5767407.0
16	14	46	15	236	214.0	-147073.0	10980.0	-5767131.0
16	14	46	15	236	215.0	-173172.0	10627.0	-5766537.0
16	14	46	15	237	216.0	-219210.0	10915.0	-5765929.0
16	14	46	15	237	217.0	-302396.0	10204.0	-5766580.0
16	14	46	15	260	218.0	-418844.0	9401.0	-5766741.0
16	14	46	15	260	219.0	-526201.0	9906.0	-5766164.0
16	14	46	15	261	220.0	-494177.0	10787.0	-5766592.0
16	14	46	15	261	221.0	-279861.0	10572.0	-5767724.0
16	14	46	15	261	222.0	53191.0	10339.0	-5767177.0
16	14	46	15	262	223.0	324014.0	10484.0	-5766586.0
16	14	46	15	262	224.0	437464.0	10341.0	-5766235.0
16	14	46	15	262	225.0	486299.0	9659.0	-5767499.0
16	14	46	15	262	226.0	495782.0	9976.0	-5767378.0
16	14	46	15	263	227.0	436198.0	10526.0	-5766684.0
16	14	46	15	263	228.0	329573.0	10313.0	-5766001.0
16	14	46	15	263	229.0	206529.0	9942.0	-5766692.0
16	14	46	15	263	230.0	88896.0	9776.0	-5767493.0
16	14	46	15	264	231.0	-34593.0	9221.0	-5766891.0
16	14	46	15	264	232.0	-189353.0	8174.0	-5766209.0
16	14	46	15	289	233.0	-321808.0	7938.0	-5766191.0
16	14	46	15	289	234.0	-366847.0	8042.0	-5767555.0
16	14	46	15	289	235.0	-289066.0	8652.0	-5767255.0
16	14	46	15	290	236.0	-112305.0	8249.0	-5766604.0
16	14	46	15	290	237.0	84379.0	7636.0	-5766367.0
16	14	46	15	290	238.0	235514.0	7501.0	-5767604.0
16	14	46	15	291	239.0	329313.0	7675.0	-5767441.0
16	14	46	15	291	240.0	368091.0	7236.0	-5766790.0
16	14	46	15	291	241.0	369562.0	6915.0	-5766327.0
16	14	46	15	291	242.0	350708.0	7716.0	-5767480.0
16	14	46	15	292	243.0	324810.0	8313.0	-5767592.0
16	14	46	15	292	244.0	303183.0	8664.0	-5766968.0
16	14	46	15	292	245.0	278983.0	8808.0	-5766246.0
16	14	46	15	293	246.0	240261.0	8312.0	-5766791.0
16	14	46	15	293	247.0	184312.0	7821.0	-5767805.0
16	14	46	15	319	248.0	123154.0	7608.0	-5767350.0
16	14	46	15	319	249.0	63746.0	7660.0	-5766607.0
16	14	46	15	319	250.0	8868.0	8212.0	-5766607.0
16	14	46	15	320	251.0	-36584.0	7920.0	-5767747.0
16	14	46	15	320	252.0	-72156.0	7669.0	-5767524.0
16	14	46	15	320	253.0	-95350.0	7504.0	-5766819.0
16	14	46	15	320	254.0	-112722.0	8010.0	-5766922.0
16	14	46	15	321	255.0	-120374.0	7638.0	-5768323.0
16	14	46	15	321	0.0	-118652.0	7546.0	-5768108.0
16	14	46	15	321	1.0	-103695.0	7973.0	-5767351.0
16	14	46	15	321	2.0	-77426.0	7979.0	-5766894.0
16	14	46	15	322	3.0	-50026.0	7323.0	-5767906.0
16	14	46	15	322	4.0	-27025.0	6618.0	-5768442.0
16	14	46	15	322	5.0	-5432.0	6021.0	-5767744.0
16	14	46	15	322	6.0	17689.0	5074.0	-5767167.0
16	14	46	15	348	7.0	34899.0	4809.0	-5767931.0
16	14	46	15	349	8.0	43039.0	4631.0	-5768617.0
16	14	46	15	349	9.0	43632.0	5348.0	-5767966.0
16	14	46	15	349	10.0	38617.0	5146.0	-5767324.0
16	14	46	15	350	11.0	32948.0	4893.0	-5767751.0
16	14	46	15	350	12.0	32589.0	4958.0	-5768696.0
16	14	46	15	350	13.0	28011.0	4119.0	-5768129.0
16	14	46	15	350	14.0	18808.0	2898.0	-5767449.0
16	14	46	15	351	15.0	12664.0	3466.0	-5767697.0
16	14	46	15	351	16.0	3312.0	3958.0	-5768671.0
16	14	46	15	351	17.0	-6526.0	3523.0	-5768190.0
16	14	46	15	351	18.0	-16082.0	2861.0	-5767524.0
16	14	46	15	352	19.0	-21269.0	2125.0	-5767142.0
16	14	46	15	352	20.0	-23385.0	1998.0	-5768254.0
16	14	46	15	352	21.0	-21116.0	1464.0	-5768314.0
16	14	46	15	377	22.0	-21244.0	768.0	-5767591.0
16	14	46	15	378	23.0	-36784.0	196.0	-5767062.0
16	14	46	15	378	24.0	-55387.0	-298.0	-5767961.0
16	14	46	15	378	25.0	-59915.0	-1240.0	-5768583.0
16	14	46	15	378	26.0	-52794.0	-1899.0	-5767889.0
16	14	46	15	379	27.0	-41675.0	-1809.0	-5767382.0
16	14	46	15	379	28.0	-26450.0	-2112.0	-5768296.0
16	14	46	15	379	29.0	-1933.0	-2792.0	-5769144.0
16	14	46	15	380	30.0	30150.0	-2472.0	-5768461.0
16	14	46	15	380	31.0	62074.0	-2073.0	-5767814.0
16	14	46	15	380	32.0	89778.0	-1898.0	-5767519.0
16	14	46	15	380	33.0	104396.0	-1795.0	-5768671.0
16	14	46	15	381	34.0	111625.0	-2162.0	-5768391.0
16	14	46	15	381	35.0	107897.0	-2589.0	-5767783.0
16	14	46	15	381	36.0	103201.0	-3883.0	-5768022.0
16	14	46	15	404	37.0	94821.0	-4246.0	-5769068.0
16	14	46	15	405	38.0	95133.0	-3375.0	-5768504.0
16	14	46	15	405	39.0	103601.0	-3372.0	-5767892.0
16	14	46	15	405	40.0	113164.0	-3611.0	-5767604.0
16	14	46	15	406	41.0	120025.0	-3969.0	-5769016.0
16	14	46	15	406	42.0	127427.0	-4130.0	-5768839.0
16	14	46	15	406	43.0	125119.0	-4801.0	-5768243.0
16	14	46	15	406	44.0	114030.0	-5341.0	-5767852.0
16	14	46	15	407	45.0	105956.0	-5246.0	-5768764.0
16	14	46	15	407	46.0	90877.0	-4728.0	-5768480.0
16	14	46	15	407	47.0	66215.0	-4382.0	-5767884.0
16	14	46	15	407	48.0	34658.0	-4268.0	-5768369.0
16	14	46	15	408	49.0	3866.0	-4447.0	-5769058.0
16	14	46	15	408	50.0	-23242.0	-5117.0	-5768374.0
16	14	46	15	408	51.0	-43581.0	-5884.0	-5767764.0
16	14	46	15	435	52.0	-56016.0	-5634.0	-5767238.0
16	14	46	15	435	53.0	-65696.0	-4937.0	-5768084.0
16	14	46	15	436	54.0	-67409.0	-4311.0	-5767966.0
16	14	46	15	436	55.0	-64451.0	-4099.0	-5767440.0
16	14	46	15	436	56.0	-65823.0	-4226.0	-5768282.0
16	14	46	15	437	57.0	-71391.0	-4254.0	-5769131.0
16	14	46	15	437	58.0	-79506.0	-4899.0	-5768457.0
16	14	46	15	437	59.0	-84237.0	-5295.0	-5767857.0
16	14	46	15	437	60.0	-85664.0	-5054.0	-5768344.0
16	14	46	15	438	61.0	-86115.0	-4081.0	-5769544.0
16	14	46	15	438	62.0	-94331.0	-4282.0	-5768944.0
16	14	46	15	438	63.0	-108861.0	-4410.0	-5768351.0
16	14	46	15	438	64.0	-122467.0	-4701.0	-5767936.0
16	14	46	15	439	65.0	-136589.0	-4924.0	-5769285.0
16	14	46	15	461	66.0	-160229.0	-5529.0	-5769309.0
16	14	46	15	461	67.0	-184884.0	-6094.0	-5768642.0
16	14	46	15	462	68.0	-203124.0	-4969.0	-5767936.0
16	14	46	15	462	69.0	-209697.0	-4033.0	-5768588.0
16	14	46	15	462	70.0	-199274.0	-4022.0	-5769518.0
16	14	46	15	463	71.0	-177796.0	-4808.0	-5768969.0
16	14	46	15	463	72.0	-149042.0	-4711.0	-5768288.0
16	14	46	15	488	73.0	-124784.0	-4973.0	-5768200.0
16	14	46	15	488	74.0	-112632.0	-5254.0	-5769535.0
16	14	46	15	488	75.0	-110848.0	-4496.0	-5769356.0
16	14	46	15	489	76.0	-110637.0	-3936.0	-5768649.0
16	14	46	15	489	77.0	-117908.0	-4117.0	-5768679.0
16	14	46	15	489	78.0	-128962.0	-4272.0	-5770102.0
16	14	46	15	490	79.0	-134276.0	-4408.0	-5769815.0
16	14	46	15	490	80.0	-129749.0	-5073.0	-5769129.0
16	14	46	15	490	81.0	-124531.0	-6027.0	-5768646.0
16	14	46	15	491	82.0	-118775.0	-5955.0	-5769624.0
16	14	46	15	491	83.0	-104994.0	-5347.0	-5769680.0
16	14	46	15	491	84.0	-82466.0	-4830.0	-5769041.0
16	14	46	15	491	85.0	-65208.0	-4040.0	-5768375.0
16	14	46	15	492	86.0	-53585.0	-5086.0	-5768994.0
16	14	46	15	492	87.0	-39844.0	-5124.0	-5769599.0
16	14	46	15	514	88.0	-21558.0	-5709.0	-5769052.0
16	14	46	15	514	89.0	-14218.0	-6257.0	-5768352.0
16	14	46	15	540	90.0	-13692.0	-5556.0	-5768822.0
16	14	46	15	540	91.0	-7361.0	-5294.0	-5770032.0
16	14	46	15	541	92.0	9694.0	-6053.0	-5769635.0
16	14	46	15	541	93.0	30536.0	-6842.0	-5768911.0
16	14	46	15	541	94.0	51668.0	-7127.0	-5768951.0
16	14	46	15	542	95.0	75465.0	-7777.0	-5770181.0
16	14	46	15	542	96.0	102178.0	-7781.0	-5769933.0
16	14	46	15	542	97.0	121311.0	-7257.0	-5769189.0
16	14	46	15	542	98.0	127772.0	-7530.0	-5768754.0
16	14	46	15	543	99.0	128950.0	-7712.0	-5769725.0
16	14	46	15	543	100.0	133334.0	-8099.0	-5770051.0
16	14	46	15	543	101.0	142461.0	-8864.0	-5769356.0
16	14	46	15	544	102.0	137627.0	-8887.0	-5768764.0
16	14	46	15	544	103.0	123729.0	-9126.0	-5769377.0
16	14	46	15	544	104.0	106175.0	-8920.0	-5770406.0
16	14	46	15	545	105.0	86398.0	-8016.0	-5769834.0
16	14	46	15	545	110.0	-100391.0	-10081.0	-5769156.0
16	14	46	15	545	111.0	-124028.0	-10805.0	-5769266.0
16	14	46	15	545	112.0	-140041.0	-10674.0	-5770471.0
16	14	46	15	546	113.0	-136667.0	-10387.0	-5770072.0
16	14	46	15	546	114.0	-163326.0	-10404.0	-5769338.0
16	14	46	15	546	115.0	-148528.0	-9952.0	-5769234.0
16	14	46	15	547	116.0	-117751.0	-10268.0	-5770513.0
16	14	46	15	547	117.0	-68765.0	-10039.0	-5770374.0
16	14	46	15	565	118.0	-16351.0	-10375.0	-5769641.0
16	14	46	15	566	119.0	32178.0	-10723.0	-5769091.0
16	14	46	15	566	120.0	68813.0	-10374.0	-5769718.0
16	14	46	15	567	121.0	93713.0	-10570.0	-5770543.0
16	14	46	15	567	122.0	112848.0	-10399.0	-5769869.0
16	14	46	15	567	123.0	134602.0	-10776.0	-5769396.0
16	14	46	15	568	124.0	145994.0	-11046.0	-5770247.0
16	14	46	15	568	125.0	145879.0	-11338.0	-5770841.0
16	14	46	15	568	126.0	137286.0	-12188.0	-5770161.0
16	14	46	15	590	127.0	120816.0	-12591.0	-5769587.0
16	14	46	15	590	128.0	98120.0	-12158.0	-5769988.0
16	14	46	15	590	129.0	87054.0	-10956.0	-5771054.0
16	14	46	15	591	130.0	86988.0	-10934.0	-5770451.0
16	14	46	15	591	131.0	92732.0	-11349.0	-5769816.0
16	14	46	15	591	132.0	98722.0	-11378.0	-5769181.0
16	14	46	15	592	133.0	119693.0	-11916.0	-5769766.0
16	14	46	15	592	134.0	140055.0	-12608.0	-5769897.0
16	14	46	15	592	135.0	152013.0	-12197.0	-5769368.0
16	14	46	15	593	136.0	154571.0	-11324.0	-5769881.0
16	14	46	15	593	137.0	147984.0	-11391.0	-5770817.0
16	14	46	15	593	138.0	141445.0	-11361.0	-5770212.0
16	14	46	15	593	139.0	138731.0	-10999.0	-5769620.0
16	14	46	15	594	140.0	141911.0	-10492.0	-5769679.0
16	14	46	15	614	141.0	137072.0	-11077.0	-5770977.0
16	14	46	15	615	142.0	127896.0	-11097.0	-5770507.0
16	14	46	15	615	143.0	121188.0	-10113.0	-5769867.0
16	14	46	15	615	144.0	115188.0	-9850.0	-5769474.0
16	14	46	15	616	145.0	103263.0	-9957.0	-5770654.0
16	14	46	15	616	146.0	103043.0	-9456.0	-5770521.0
16	14	46	15	616	147.0	119961.0	-9557.0	-5769834.0
16	14	46	15	616	148.0	141513.0	-10366.0	-5769184.0
16	14	46	15	617	149.0	164558.0	-10861.0	-5769496.0
16	14	46	15	617	150.0	193616.0	-10671.0	-5769907.0
16	14	46	15	617	151.0	234439.0	-9520.0	-5769323.0
16	14	46	15	618	152.0	270540.0	-8965.0	-5769120.0
16	14	46	15	618	153.0	296674.0	-9357.0	-5770328.0
16	14	46	15	640	154.0	315320.0	-9315.0	-5770024.0
16	14	46	15	641	155.0	323395.0	-9248.0	-5769372.0
16	14	46	15	641	156.0	321243.0	-9902.0	-5769392.0
16	14	46	15	641	157.0	297497.0	-9975.0	-5770591.0
16	14	46	15	642	158.0	247793.0	-9137.0	-5770182.0
16	14	46	15	642	159.0	173393.0	-8337.0	-5769522.0
16	14	46	15	642	160.0	85276.0	-8715.0	-5769031.0
16	14	46	15	643	161.0	-5612.0	-8824.0	-5770348.0
