16	15	9	25	853	160.0	227653.0	-13752.0	-5643540.0
16	15	9	25	885	161.0	225953.0	-14772.0	-5642900.0
16	15	9	25	886	162.0	227087.0	-14607.0	-5642064.0
16	15	9	25	887	163.0	232524.0	-15983.0	-5642794.0
16	15	9	25	888	164.0	228839.0	-17407.0	-5643837.0
16	15	9	25	889	165.0	211949.0	-18694.0	-5643254.0
16	15	9	25	890	166.0	193299.0	-17801.0	-5642404.0
16	15	9	25	891	167.0	176483.0	-17954.0	-5642966.0
16	15	9	25	892	168.0	161974.0	-19827.0	-5644117.0
16	15	9	25	893	169.0	146524.0	-22523.0	-5643541.0
16	15	9	25	894	170.0	138516.0	-23477.0	-5642734.0
16	15	9	25	894	171.0	134121.0	-21856.0	-5643445.0
16	15	9	25	895	172.0	135450.0	-22291.0	-5644435.0
16	15	9	25	896	173.0	133731.0	-22034.0	-5643794.0
16	15	9	25	897	174.0	118349.0	-21358.0	-5642957.0
16	15	9	25	898	175.0	98809.0	-21748.0	-5643462.0
16	15	9	25	899	176.0	86832.0	-24301.0	-5644224.0
16	15	9	25	900	177.0	74708.0	-24829.0	-5643567.0
16	15	9	25	901	178.0	62112.0	-23342.0	-5642726.0
16	15	9	25	903	179.0	52438.0	-23822.0	-5643014.0
16	15	9	25	904	180.0	44473.0	-25433.0	-5644147.0
16	15	9	25	904	181.0	45036.0	-23975.0	-5643561.0
16	15	9	25	905	182.0	51899.0	-23599.0	-5642798.0
16	15	9	25	913	183.0	64959.0	-24803.0	-5643143.0
16	15	9	25	959	184.0	78139.0	-25764.0	-5643610.0
16	15	9	25	960	185.0	87244.0	-23574.0	-5642919.0
16	15	9	25	960	186.0	92959.0	-22564.0	-5642794.0
16	15	9	25	961	187.0	93213.0	-22399.0	-5644121.0
16	15	9	25	962	188.0	94500.0	-21979.0	-5643656.0
16	15	9	25	962	189.0	97248.0	-21766.0	-5642867.0
16	15	9	25	962	190.0	87741.0	-21536.0	-5643171.0
16	15	9	25	963	191.0	75750.0	-21340.0	-5644441.0
16	15	9	25	971	192.0	65451.0	-21154.0	-5643801.0
16	15	9	25	972	193.0	51951.0	-20849.0	-5642989.0
16	15	9	25	972	194.0	39836.0	-20976.0	-5643034.0
16	15	9	25	973	195.0	31988.0	-20904.0	-5644343.0
16	15	9	25	974	196.0	25393.0	-20063.0	-5643886.0
16	15	9	25	974	197.0	16253.0	-19726.0	-5643044.0
16	15	9	25	975	198.0	11057.0	-20357.0	-5642718.0
16	15	9	25	975	220.0	47343.0	-8095.0	-5643922.0
16	15	9	25	976	221.0	39994.0	-10074.0	-5643049.0
16	15	9	25	977	222.0	17868.0	-10289.0	-5643006.0
16	15	9	25	977	223.0	7288.0	-9779.0	-5644267.0
16	15	9	25	978	224.0	-6957.0	-9518.0	-5643875.0
16	15	9	25	978	225.0	-25164.0	-8967.0	-5643012.0
16	15	9	26	3	226.0	-38111.0	-8646.0	-5643060.0
16	15	9	26	3	227.0	-58176.0	-7287.0	-5644237.0
16	15	9	26	4	228.0	-90359.0	-4855.0	-5643743.0
16	15	9	26	5	229.0	-110462.0	-4067.0	-5642929.0
16	15	9	26	19	230.0	-127198.0	-2966.0	-5642694.0
16	15	9	26	19	231.0	-149419.0	-2329.0	-5644049.0
16	15	9	26	20	232.0	-167995.0	-1833.0	-5643702.0
16	15	9	26	21	233.0	-182779.0	-2134.0	-5642906.0
16	15	9	26	21	234.0	-195959.0	-2090.0	-5642442.0
16	15	9	26	22	235.0	-198589.0	-1432.0	-5643729.0
16	15	9	26	23	236.0	-201336.0	-1166.0	-5643571.0
16	15	9	26	24	237.0	-213983.0	-821.0	-5642822.0
16	15	9	26	24	238.0	-217951.0	-916.0	-5642826.0
16	15	9	26	25	239.0	-208753.0	-602.0	-5644224.0
16	15	9	26	26	240.0	-200856.0	-571.0	-5643731.0
16	15	9	26	26	242.0	-175699.0	158.0	-5642745.0
16	15	9	26	27	243.0	-150689.0	-994.0	-5643651.0
16	15	9	26	28	244.0	-122821.0	-2759.0	-5643084.0
16	15	9	26	28	245.0	-85997.0	-2899.0	-5642385.0
16	15	9	26	29	246.0	-48994.0	-2769.0	-5643200.0
16	15	9	26	30	247.0	-9594.0	-2616.0	-5643988.0
16	15	9	26	31	248.0	25180.0	-2834.0	-5643179.0
16	15	9	26	48	249.0	51917.0	-2785.0	-5642517.0
16	15	9	26	49	250.0	70148.0	-1719.0	-5643249.0
16	15	9	26	50	251.0	93353.0	-207.0	-5643984.0
16	15	9	26	69	252.0	122441.0	139.0	-5643199.0
16	15	9	26	70	253.0	162751.0	93.0	-5642799.0
16	15	9	26	70	254.0	209043.0	778.0	-5644150.0
16	15	9	26	95	255.0	245296.0	665.0	-5644284.0
16	15	9	26	95	0.0	267955.0	308.0	-5643434.0
16	15	9	26	96	1.0	291979.0	3.0	-5643107.0
16	15	9	26	97	2.0	323139.0	527.0	-5644311.0
16	15	9	26	104	3.0	347003.0	1372.0	-5644245.0
16	15	9	26	118	4.0	357289.0	884.0	-5643347.0
16	15	9	26	118	5.0	355208.0	794.0	-5642798.0
16	15	9	26	118	6.0	341717.0	694.0	-5643909.0
16	15	9	26	119	7.0	307349.0	84.0	-5644227.0
16	15	9	26	119	9.0	130803.0	-540.0	-5642807.0
16	15	9	26	120	10.0	-296472.0	-2858.0	-5643874.0
16	15	9	26	120	11.0	-841327.0	-3041.0	-5644157.0
16	15	9	26	121	12.0	-1193110.0	-1660.0	-5643305.0
16	15	9	26	121	13.0	-1193269.0	-1295.0	-5642790.0
16	15	9	26	122	14.0	-909197.0	-1541.0	-5644024.0
16	15	9	26	122	31.0	301448.0	-423.0	-5645009.0
16	15	9	26	123	32.0	108439.0	-1899.0	-5644247.0
16	15	9	26	123	33.0	-82221.0	-3582.0	-5643490.0
16	15	9	26	123	34.0	-171024.0	-3924.0	-5644481.0
16	15	9	26	124	35.0	-165511.0	-4230.0	-5644974.0
16	15	9	26	124	36.0	-127342.0	-3976.0	-5644255.0
16	15	9	26	138	37.0	-95405.0	-3782.0	-5643407.0
16	15	9	26	152	38.0	-97232.0	-3407.0	-5644209.0
16	15	9	26	153	39.0	-151577.0	-1576.0	-5645039.0
16	15	9	26	153	40.0	-242372.0	-502.0	-5644352.0
16	15	9	26	154	41.0	-323661.0	-559.0	-5643482.0
16	15	9	26	154	42.0	-378630.0	-309.0	-5644042.0
16	15	9	26	155	43.0	-398237.0	-306.0	-5644901.0
16	15	9	26	156	44.0	-388526.0	46.0	-5644284.0
16	15	9	26	156	45.0	-350731.0	71.0	-5643693.0
16	15	9	26	157	46.0	-308645.0	-499.0	-5644644.0
16	15	9	26	157	47.0	-268700.0	-914.0	-5644495.0
16	15	9	26	158	48.0	-245743.0	-570.0	-5643789.0
16	15	9	26	158	49.0	-241645.0	-233.0	-5644249.0
16	15	9	26	159	50.0	-248307.0	31.0	-5645493.0
16	15	9	26	159	51.0	-270944.0	-326.0	-5644759.0
16	15	9	26	160	53.0	-318719.0	19.0	-5643924.0
16	15	9	26	160	54.0	-330620.0	-192.0	-5645161.0
16	15	9	26	161	55.0	-334261.0	-1830.0	-5644628.0
16	15	9	26	162	56.0	-322071.0	-2698.0	-5643891.0
16	15	9	26	162	57.0	-300452.0	-2934.0	-5644141.0
16	15	9	26	163	58.0	-277842.0	-3114.0	-5645342.0
16	15	9	26	163	59.0	-245192.0	-2892.0	-5644725.0
16	15	9	26	183	60.0	-200981.0	-2741.0	-5643951.0
16	15	9	26	183	61.0	-158861.0	-2458.0	-5644246.0
16	15	9	26	201	62.0	-120553.0	11.0	-5645446.0
16	15	9	26	202	63.0	-69083.0	709.0	-5644817.0
16	15	9	26	202	64.0	-5300.0	1139.0	-5644078.0
16	15	9	26	203	65.0	67286.0	1421.0	-5644614.0
16	15	9	26	203	66.0	121948.0	1103.0	-5645324.0
16	15	9	26	204	67.0	165027.0	1221.0	-5644539.0
16	15	9	26	204	68.0	195314.0	1750.0	-5643742.0
16	15	9	26	204	69.0	220066.0	2028.0	-5644261.0
16	15	9	26	205	70.0	242194.0	1756.0	-5645404.0
16	15	9	26	205	71.0	256922.0	1579.0	-5644796.0
16	15	9	26	206	72.0	262073.0	1293.0	-5643967.0
16	15	9	26	206	73.0	256860.0	1250.0	-5644421.0
16	15	9	26	207	74.0	257211.0	1214.0	-5645454.0
16	15	9	26	207	76.0	251404.0	1276.0	-5644026.0
16	15	9	26	207	77.0	238057.0	-462.0	-5644637.0
16	15	9	26	208	78.0	223383.0	-2227.0	-5645576.0
16	15	9	26	208	79.0	215499.0	-1907.0	-5644931.0
16	15	9	26	209	80.0	211698.0	-1608.0	-5644103.0
16	15	9	26	209	81.0	198850.0	-1833.0	-5644471.0
16	15	9	26	229	82.0	177838.0	-1347.0	-5645629.0
16	15	9	26	230	83.0	166063.0	-532.0	-5645082.0
16	15	9	26	238	84.0	168022.0	1918.0	-5644216.0
16	15	9	26	238	85.0	168541.0	3945.0	-5644317.0
16	15	9	26	239	86.0	168221.0	5397.0	-5645561.0
16	15	9	26	239	87.0	164085.0	6041.0	-5645127.0
16	15	9	26	240	88.0	147386.0	6845.0	-5644272.0
16	15	9	26	240	89.0	123374.0	7878.0	-5644283.0
16	15	9	26	241	90.0	110404.0	8902.0	-5645671.0
16	15	9	26	241	91.0	103086.0	9836.0	-5645339.0
16	15	9	26	256	92.0	86827.0	10814.0	-5644493.0
16	15	9	26	256	93.0	53151.0	11888.0	-5644891.0
16	15	9	26	256	94.0	24672.0	13266.0	-5646098.0
16	15	9	26	257	95.0	-781.0	14581.0	-5645573.0
16	15	9	26	257	96.0	-29590.0	16096.0	-5644707.0
16	15	9	26	257	98.0	-76993.0	19384.0	-5646113.0
16	15	9	26	258	99.0	-102671.0	21129.0	-5645457.0
16	15	9	26	258	100.0	-125807.0	21016.0	-5644610.0
16	15	9	26	258	101.0	-140554.0	22388.0	-5644657.0
16	15	9	26	259	102.0	-149054.0	24528.0	-5645966.0
16	15	9	26	259	103.0	-154301.0	26662.0	-5645491.0
16	15	9	26	259	104.0	-150061.0	28547.0	-5644672.0
16	15	9	26	273	105.0	-144997.0	30756.0	-5645097.0
16	15	9	26	273	106.0	-141629.0	33206.0	-5646172.0
16	15	9	26	284	107.0	-115276.0	37852.0	-5645545.0
16	15	9	26	284	108.0	-77006.0	39983.0	-5644784.0
16	15	9	26	285	109.0	-56101.0	41783.0	-5645401.0
16	15	9	26	285	110.0	-54407.0	43569.0	-5646422.0
16	15	9	26	285	111.0	-53499.0	45446.0	-5645731.0
16	15	9	26	285	112.0	-46024.0	47452.0	-5644936.0
16	15	9	26	286	113.0	-36200.0	49087.0	-5645141.0
16	15	9	26	286	114.0	-20334.0	50586.0	-5646258.0
16	15	9	26	286	115.0	257.0	52182.0	-5645570.0
16	15	9	26	286	116.0	20853.0	52984.0	-5644859.0
16	15	9	26	287	117.0	46800.0	53483.0	-5645414.0
16	15	9	26	287	118.0	77464.0	54400.0	-5646481.0
16	15	9	26	287	119.0	119578.0	54814.0	-5645750.0
16	15	9	26	287	121.0	182541.0	55265.0	-5645165.0
16	15	9	26	301	122.0	185245.0	53264.0	-5646519.0
16	15	9	26	301	123.0	161283.0	51323.0	-5645910.0
16	15	9	26	301	124.0	121033.0	50788.0	-5645237.0
16	15	9	26	302	125.0	62442.0	50361.0	-5646018.0
16	15	9	26	302	126.0	-836.0	49533.0	-5646777.0
16	15	9	26	317	127.0	-62148.0	48543.0	-5645966.0
16	15	9	26	335	128.0	-172579.0	47545.0	-5645270.0
16	15	9	26	335	129.0	-393694.0	48146.0	-5645801.0
16	15	9	26	335	130.0	-666220.0	48020.0	-5646544.0
16	15	9	26	335	131.0	-695232.0	46609.0	-5645695.0
16	15	9	26	336	132.0	-314537.0	45721.0	-5644981.0
16	15	9	26	336	133.0	180437.0	44447.0	-5645489.0
16	15	9	26	336	134.0	392104.0	43223.0	-5646379.0
16	15	9	26	336	135.0	327334.0	41932.0	-5645634.0
16	15	9	26	337	136.0	237191.0	39828.0	-5644897.0
16	15	9	26	337	137.0	168804.0	38034.0	-5645476.0
16	15	9	26	337	138.0	107339.0	36404.0	-5646201.0
16	15	9	26	338	139.0	66652.0	34634.0	-5645436.0
16	15	9	26	338	140.0	26172.0	33174.0	-5644790.0
16	15	9	26	338	141.0	-19409.0	31235.0	-5645588.0
16	15	9	26	338	143.0	-85767.0	27670.0	-5645098.0
16	15	9	26	339	144.0	-105529.0	25109.0	-5644520.0
16	15	9	26	339	145.0	-118435.0	21378.0	-5645619.0
16	15	9	26	339	146.0	-128537.0	19333.0	-5645859.0
16	15	9	26	340	147.0	-144730.0	17386.0	-5645026.0
16	15	9	26	340	148.0	-171219.0	15230.0	-5644232.0
16	15	9	26	340	149.0	-212549.0	13264.0	-5644867.0
16	15	9	26	364	150.0	-259164.0	11279.0	-5645559.0
16	15	9	26	364	151.0	-283255.0	10575.0	-5644887.0
16	15	9	26	364	152.0	-250729.0	11258.0	-5644141.0
16	15	9	26	365	153.0	-162476.0	9418.0	-5645033.0
16	15	9	26	369	154.0	-61782.0	7530.0	-5645719.0
16	15	9	26	370	155.0	4923.0	6423.0	-5645016.0
16	15	9	26	370	156.0	16351.0	5041.0	-5644427.0
16	15	9	26	371	157.0	-10321.0	4046.0	-5645557.0
16	15	9	26	371	158.0	-51202.0	3074.0	-5645600.0
16	15	9	26	372	159.0	-100322.0	1419.0	-5644844.0
16	15	9	26	372	160.0	-123141.0	211.0	-5644305.0
16	15	9	26	372	161.0	-114516.0	-1016.0	-5645828.0
16	15	9	26	384	162.0	-93140.0	-2226.0	-5645875.0
16	15	9	26	385	163.0	-64294.0	-3795.0	-5645102.0
16	15	9	26	385	164.0	-27748.0	-5377.0	-5644316.0
16	15	9	26	385	166.0	63706.0	-7936.0	-5645690.0
16	15	9	26	386	167.0	96279.0	-11017.0	-5644989.0
16	15	9	26	386	168.0	119539.0	-13166.0	-5644318.0
16	15	9	26	386	169.0	138618.0	-14482.0	-5645077.0
16	15	9	26	387	170.0	153907.0	-15498.0	-5644956.0
16	15	9	26	387	171.0	166858.0	-16861.0	-5644232.0
16	15	9	26	407	172.0	172438.0	-17611.0	-5644454.0
16	15	9	26	408	173.0	177516.0	-17809.0	-5645591.0
16	15	9	26	408	174.0	181756.0	-16322.0	-5644907.0
16	15	9	26	418	175.0	186241.0	-16610.0	-5644231.0
16	15	9	26	418	176.0	180594.0	-16787.0	-5644803.0
16	15	9	26	418	177.0	173514.0	-17341.0	-5645613.0
16	15	9	26	419	178.0	158190.0	-17894.0	-5644810.0
16	15	9	26	419	179.0	133159.0	-18714.0	-5644048.0
16	15	9	26	419	180.0	115841.0	-19078.0	-5644208.0
16	15	9	26	420	181.0	103007.0	-19034.0	-5645236.0
16	15	9	26	420	182.0	95039.0	-19632.0	-5644584.0
16	15	9	26	420	183.0	88403.0	-20424.0	-5643824.0
16	15	9	26	420	184.0	76538.0	-20789.0	-5644259.0
16	15	9	26	421	185.0	64528.0	-21531.0	-5645366.0
16	15	9	26	435	186.0	54722.0	-21221.0	-5644696.0
16	15	9	26	435	188.0	83200.0	-22511.0	-5644682.0
16	15	9	26	435	189.0	52534.0	-23520.0	-5645528.0
16	15	9	26	436	190.0	10133.0	-25676.0	-5644794.0
16	15	9	26	436	191.0	-5634.0	-25931.0	-5644057.0
16	15	9	26	436	192.0	1718.0	-26274.0	-5644736.0
16	15	9	26	437	193.0	21934.0	-26578.0	-5645529.0
16	15	9	26	437	194.0	43779.0	-26926.0	-5644795.0
16	15	9	26	452	195.0	67889.0	-27007.0	-5643931.0
16	15	9	26	453	196.0	93489.0	-25819.0	-5644114.0
16	15	9	26	453	197.0	119461.0	-23047.0	-5645021.0
16	15	9	26	471	198.0	144326.0	-22648.0	-5644445.0
16	15	9	26	471	199.0	156459.0	-22540.0	-5643703.0
16	15	9	26	471	200.0	163188.0	-22267.0	-5644579.0
16	15	9	26	472	201.0	164701.0	-21607.0	-5644982.0
16	15	9	26	472	202.0	162323.0	-21259.0	-5644257.0
16	15	9	26	472	203.0	144281.0	-21061.0	-5643610.0
16	15	9	26	472	204.0	124263.0	-21088.0	-5644696.0
16	15	9	26	473	205.0	108938.0	-21111.0	-5644872.0
16	15	9	26	473	206.0	106819.0	-20643.0	-5644114.0
16	15	9	26	473	207.0	112304.0	-19614.0	-5643397.0
16	15	9	26	497	208.0	114884.0	-19893.0	-5644401.0
16	15	9	26	506	209.0	126215.0	-19557.0	-5644702.0
16	15	9	26	507	211.0	147830.0	-18085.0	-5643291.0
16	15	9	26	507	212.0	155180.0	-19729.0	-5644415.0
16	15	9	26	507	213.0	162214.0	-20563.0	-5644454.0
16	15	9	26	507	214.0	173689.0	-20051.0	-5643717.0
16	15	9	26	508	215.0	186693.0	-19778.0	-5642992.0
16	15	9	26	508	216.0	194797.0	-17774.0	-5643764.0
16	15	9	26	508	217.0	198831.0	-16047.0	-5643816.0
16	15	9	26	509	218.0	193739.0	-14871.0	-5643169.0
16	15	9	26	509	219.0	180220.0	-13785.0	-5643921.0
16	15	9	26	509	220.0	172668.0	-13097.0	-5644627.0
16	15	9	26	509	221.0	168129.0	-12267.0	-5643786.0
16	15	9	26	527	222.0	170560.0	-12044.0	-5643110.0
16	15	9	26	527	223.0	172451.0	-10999.0	-5643801.0
16	15	9	26	527	233.0	69487.0	-4532.0	-5643832.0
16	15	9	26	528	234.0	46980.0	-5415.0	-5643117.0
16	15	9	26	528	235.0	25456.0	-7137.0	-5643946.0
16	15	9	26	528	236.0	5674.0	-6864.0	-5644648.0
16	15	9	26	528	237.0	-10931.0	-6897.0	-5643906.0
16	15	9	26	529	238.0	-26599.0	-6384.0	-5643151.0
16	15	9	26	529	239.0	-45794.0	-6048.0	-5643729.0
16	15	9	26	547	240.0	-56285.0	-5504.0	-5644637.0
16	15	9	26	548	241.0	-65009.0	-4504.0	-5643942.0
16	15	9	26	548	242.0	-76974.0	-1901.0	-5643128.0
16	15	9	26	549	243.0	-83157.0	-1309.0	-5643202.0
16	15	9	26	549	244.0	-86381.0	-1186.0	-5644169.0
16	15	9	26	549	245.0	-90922.0	-554.0	-5643589.0
16	15	9	26	569	246.0	-96068.0	-122.0	-5642764.0
16	15	9	26	569	247.0	-99294.0	418.0	-5643366.0
16	15	9	26	570	248.0	-89582.0	621.0	-5644022.0
16	15	9	26	570	249.0	-71999.0	571.0	-5643341.0
16	15	9	26	570	250.0	-51742.0	610.0	-5642593.0
16	15	9	26	571	251.0	-22620.0	1053.0	-5643632.0
16	15	9	26	571	252.0	16706.0	1118.0	-5644212.0
16	15	9	26	571	253.0	60141.0	1368.0	-5643485.0
16	15	9	26	572	254.0	109068.0	944.0	-5642747.0
16	15	9	26	572	0.0	180053.0	589.0	-5644321.0
16	15	9	26	572	1.0	193798.0	-1204.0	-5643600.0
16	15	9	26	573	2.0	197821.0	-2302.0	-5642751.0
16	15	9	26	573	3.0	196948.0	-2308.0	-5643036.0
16	15	9	26	573	4.0	193554.0	-2398.0	-5643997.0
16	15	9	26	574	5.0	183593.0	-2600.0	-5643428.0
16	15	9	26	591	6.0	179729.0	-2911.0	-5642569.0
16	15	9	26	591	7.0	180079.0	-2309.0	-5643056.0
16	15	9	26	592	8.0	170306.0	58.0	-5644074.0
16	15	9	26	592	9.0	163708.0	124.0	-5643469.0
16	15	9	26	593	10.0	198293.0	151.0	-5642710.0
16	15	9	26	593	11.0	249006.0	498.0	-5643789.0
16	15	9	26	614	12.0	293864.0	558.0	-5644358.0
16	15	9	26	614	13.0	313478.0	339.0	-5643641.0
16	15	9	26	614	14.0	324605.0	565.0	-5642831.0
16	15	9	26	615	15.0	335167.0	816.0	-5643522.0
16	15	9	26	615	16.0	352773.0	998.0	-5644242.0
16	15	9	26	616	17.0	372029.0	239.0	-5643562.0
16	15	9	26	616	18.0	388944.0	266.0	-5642740.0
16	15	9	26	616	19.0	402507.0	273.0	-5643359.0
16	15	9	26	617	20.0	389606.0	156.0	-5644059.0
16	15	9	26	617	22.0	289711.0	859.0	-5642581.0
16	15	9	26	617	23.0	204015.0	-496.0	-5643066.0
16	15	9	26	618	24.0	-178920.0	-2514.0	-5643445.0
16	15	9	26	618	25.0	-844659.0	-2566.0	-5642657.0
16	15	9	26	618	26.0	-1374594.0	-3071.0	-5642363.0
16	15	9	26	619	27.0	-1501719.0	-3068.0	-5643836.0
16	15	9	26	619	28.0	-1294959.0	-3576.0	-5643519.0
16	15	9	26	637	29.0	-897837.0	-4022.0	-5642804.0
16	15	9	26	638	30.0	-463931.0	-3159.0	-5643293.0
16	15	9	26	638	31.0	-184381.0	-1836.0	-5644517.0
16	15	9	26	639	32.0	-90139.0	-1766.0	-5643842.0
16	15	9	26	639	33.0	-2205.0	-977.0	-5643059.0
16	15	9	26	640	34.0	143849.0	-287.0	-5642972.0
16	15	9	26	640	35.0	218434.0	-224.0	-5644350.0
16	15	9	26	640	36.0	177769.0	-623.0	-5643961.0
16	15	9	26	641	37.0	65981.0	-766.0	-5643154.0
16	15	9	26	641	38.0	-63182.0	-604.0	-5642997.0
16	15	9	26	663	39.0	-97267.0	-588.0	-5644175.0
16	15	9	26	663	40.0	-47356.0	-1239.0	-5643786.0
16	15	9	26	663	41.0	33944.0	-408.0	-5642958.0
16	15	9	26	664	42.0	124423.0	-204.0	-5642699.0
16	15	9	26	664	43.0	165992.0	39.0	-5644127.0
16	15	9	26	664	45.0	184329.0	-909.0	-5643100.0
16	15	9	26	665	46.0	219154.0	-3214.0	-5643061.0
16	15	9	26	665	47.0	163821.0	-4046.0	-5644364.0
16	15	9	26	665	48.0	48031.0	-4018.0	-5643989.0
16	15	9	26	666	49.0	-31954.0	-3722.0	-5643145.0
16	15	9	26	666	50.0	-52763.0	-3987.0	-5643196.0
16	15	9	26	692	51.0	-39685.0	-4022.0	-5644367.0
16	15	9	26	694	52.0	-41911.0	-3483.0	-5643941.0
16	15	9	26	695	53.0	-74561.0	-1409.0	-5643087.0
16	15	9	26	696	54.0	-129507.0	-738.0	-5642750.0
16	15	9	26	697	55.0	-191776.0	-153.0	-5644049.0
16	15	9	26	698	56.0	-245566.0	124.0	-5644020.0
16	15	9	26	700	57.0	-278521.0	398.0	-5643137.0
16	15	9	26	701	58.0	-289411.0	28.0	-5642898.0
16	15	9	26	703	59.0	-286582.0	-210.0	-5644294.0
16	15	9	26	705	60.0	-282013.0	41.0	-5644169.0
16	15	9	26	706	61.0	-286112.0	301.0	-5643313.0
16	15	9	26	708	62.0	-305946.0	229.0	-5643231.0
16	15	9	26	709	63.0	-319935.0	238.0	-5644398.0
16	15	9	26	710	64.0	-332444.0	532.0	-5644041.0
16	15	9	26	712	65.0	-355981.0	963.0	-5643194.0
16	15	9	26	713	67.0	-398112.0	1404.0	-5644681.0
16	15	9	26	714	68.0	-407654.0	-429.0	-5644149.0
16	15	9	26	716	69.0	-391874.0	-2036.0	-5643339.0
16	15	9	26	717	70.0	-360274.0	-2408.0	-5643152.0
16	15	9	26	717	71.0	-310289.0	-2316.0	-5644582.0
16	15	9	26	718	72.0	-258095.0	-2267.0	-5644267.0
16	15	9	26	727	73.0	-212022.0	-2265.0	-5643481.0
16	15	9	26	728	74.0	-162381.0	-2113.0	-5643032.0
16	15	9	26	729	75.0	-98676.0	-234.0	-5644440.0
16	15	9	26	729	76.0	-25091.0	1135.0	-5644345.0
16	15	9	26	730	77.0	39991.0	1053.0	-5643566.0
16	15	9	26	730	78.0	94430.0	1175.0	-5643696.0
16	15	9	26	731	79.0	146508.0	683.0	-5644986.0
16	15	9	26	731	80.0	192172.0	928.0	-5644382.0
16	15	9	26	732	81.0	229193.0	1093.0	-5643655.0
16	15	9	26	732	82.0	264096.0	1400.0	-5643807.0
16	15	9	26	732	83.0	301302.0	1423.0	-5644826.0
16	15	9	26	733	84.0	317268.0	1871.0	-5644102.0
16	15	9	26	733	85.0	313159.0	2373.0	-5643356.0
16	15	9	26	734	86.0	299188.0	2080.0	-5643634.0
16	15	9	26	734	87.0	276387.0	1503.0	-5644909.0
16	15	9	26	735	90.0	240447.0	2842.0	-5643990.0
16	15	9	26	736	91.0	221377.0	524.0	-5645210.0
16	15	9	26	736	92.0	198456.0	-77.0	-5644497.0
16	15	9	26	737	93.0	178160.0	11.0	-5643778.0
16	15	9	26	737	94.0	161330.0	239.0	-5644322.0
16	15	9	26	738	95.0	135831.0	759.0	-5645316.0
16	15	9	26	815	96.0	112373.0	1072.0	-5644555.0
16	15	9	26	817	97.0	102005.0	2301.0	-5643799.0
16	15	9	26	817	98.0	90632.0	5013.0	-5644344.0
16	15	9	26	819	99.0	85117.0	6092.0	-5645058.0
16	15	9	26	820	100.0	88816.0	6981.0	-5644307.0
16	15	9	26	820	101.0	96358.0	7439.0	-5643535.0
16	15	9	26	821	102.0	103124.0	9423.0	-5644158.0
16	15	9	26	822	103.0	99613.0	10896.0	-5645185.0
16	15	9	26	823	104.0	94626.0	12576.0	-5644511.0
16	15	9	26	824	105.0	90241.0	13862.0	-5643696.0
16	15	9	26	840	106.0	75668.0	14696.0	-5643988.0
16	15	9	26	841	107.0	59946.0	15971.0	-5645036.0
16	15	9	26	842	108.0	49478.0	17403.0	-5644456.0
16	15	9	26	842	109.0	40747.0	18693.0	-5643744.0
16	15	9	26	843	110.0	25358.0	20063.0	-5644686.0
16	15	9	26	844	112.0	-14795.0	23938.0	-5644463.0
16	15	9	26	844	135.0	123598.0	56996.0	-5644336.0
16	15	9	26	845	136.0	153882.0	54190.0	-5643561.0
16	15	9	26	846	137.0	172303.0	53251.0	-5643436.0
16	15	9	26	846	138.0	166747.0	52413.0	-5644796.0
16	15	9	26	847	139.0	134951.0	51109.0	-5644422.0
16	15	9	26	848	140.0	90969.0	50111.0	-5643667.0
16	15	9	26	891	141.0	40199.0	49347.0	-5643819.0
16	15	9	26	892	142.0	-16391.0	48989.0	-5645068.0
16	15	9	26	893	143.0	-58907.0	50111.0	-5644534.0
16	15	9	26	893	144.0	-109336.0	49536.0	-5643756.0
16	15	9	26	894	145.0	-246213.0	48468.0	-5644254.0
16	15	9	26	894	146.0	-491702.0	47018.0	-5645359.0
16	15	9	26	894	147.0	-690054.0	44800.0	-5644688.0
16	15	9	26	895	148.0	-536352.0	43223.0	-5643859.0
16	15	9	26	895	149.0	-46328.0	42099.0	-5644007.0
16	15	9	26	896	150.0	308940.0	40332.0	-5645353.0
16	15	9	26	896	151.0	323564.0	38281.0	-5644946.0
16	15	9	26	896	152.0	252863.0	36202.0	-5644094.0
16	15	9	26	897	153.0	204301.0	34799.0	-5644180.0
16	15	9	26	897	154.0	97904.0	32573.0	-5645403.0
16	15	9	26	897	155.0	20134.0	30234.0	-5644952.0
16	15	9	26	898	157.0	-54706.0	26304.0	-5644671.0
16	15	9	26	898	158.0	-118917.0	22418.0	-5645776.0
16	15	9	26	898	159.0	-179087.0	19023.0	-5645169.0
16	15	9	26	899	160.0	-257207.0	16803.0	-5644311.0
16	15	9	26	899	161.0	-313077.0	15099.0	-5644676.0
16	15	9	26	926	162.0	-299112.0	13716.0	-5645476.0
16	15	9	26	927	163.0	-242016.0	11901.0	-5644850.0
16	15	9	26	927	164.0	-152681.0	10818.0	-5643976.0
16	15	9	26	928	165.0	-44065.0	11324.0	-5643864.0
16	15	9	26	928	166.0	29063.0	10306.0	-5645272.0
16	15	9	26	928	167.0	67040.0	8309.0	-5645032.0
16	15	9	26	929	168.0	80693.0	6717.0	-5644183.0
16	15	9	26	929	169.0	70293.0	5621.0	-5644404.0
16	15	9	26	929	170.0	53103.0	3858.0	-5645622.0
16	15	9	26	930	171.0	42752.0	2123.0	-5645148.0
16	15	9	26	930	172.0	36313.0	758.0	-5644297.0
16	15	9	26	930	173.0	24403.0	-83.0	-5644495.0
16	15	9	26	931	174.0	16070.0	-1526.0	-5645704.0
16	15	9	26	931	175.0	14261.0	-3234.0	-5645212.0
16	15	9	26	931	176.0	14169.0	-4809.0	-5644356.0
16	15	9	26	932	179.0	16528.0	-7667.0	-5645465.0
16	15	9	26	932	180.0	20507.0	-9714.0	-5644660.0
16	15	9	26	932	181.0	49264.0	-12919.0	-5644500.0
16	15	9	26	933	182.0	90522.0	-14182.0	-5646009.0
16	15	9	26	933	183.0	134378.0	-15342.0	-5645750.0
16	15	9	26	933	184.0	174678.0	-16284.0	-5644976.0
16	15	9	26	934	185.0	207799.0	-17094.0	-5644408.0
16	15	9	26	965	186.0	234743.0	-17618.0	-5645712.0
16	15	9	26	965	187.0	253765.0	-17726.0	-5645876.0
16	15	9	26	966	188.0	270110.0	-16862.0	-5645102.0
16	15	9	26	966	189.0	277530.0	-17202.0	-5645165.0
16	15	9	26	967	190.0	275566.0	-17260.0	-5645732.0
16	15	9	26	967	191.0	258657.0	-17896.0	-5645057.0
16	15	9	26	967	192.0	240536.0	-18318.0	-5644392.0
16	15	9	26	968	193.0	225193.0	-18784.0	-5645444.0
16	15	9	26	968	194.0	214171.0	-19209.0	-5645874.0
16	15	9	26	968	195.0	192844.0	-19592.0	-5645034.0
16	15	9	26	969	196.0	165356.0	-20521.0	-5644361.0
16	15	9	26	969	197.0	133856.0	-20932.0	-5645266.0
16	15	9	26	969	198.0	99786.0	-21684.0	-5645871.0
16	15	9	26	970	199.0	61406.0	-22388.0	-5645061.0
16	15	9	26	970	200.0	24998.0	-22523.0	-5644425.0
16	15	9	26	970	202.0	4317.0	-22724.0	-5645921.0
16	15	9	26	971	203.0	6298.0	-24647.0	-5645111.0
16	15	9	26	971	204.0	10198.0	-26417.0	-5644574.0
16	15	9	26	972	205.0	8568.0	-26900.0	-5645724.0
16	15	9	26	972	206.0	6198.0	-27029.0	-5646110.0
16	15	9	26	972	207.0	3156.0	-27273.0	-5645257.0
16	15	9	27	5	208.0	5588.0	-27287.0	-5644787.0
16	15	9	27	5	209.0	11621.0	-27400.0	-5645903.0
16	15	9	27	6	210.0	19213.0	-25278.0	-5645936.0
16	15	9	27	6	211.0	25121.0	-24169.0	-5645009.0
16	15	9	27	7	212.0	24414.0	-23363.0	-5644401.0
16	15	9	27	7	213.0	22578.0	-23119.0	-5645237.0
16	15	9	27	7	214.0	28598.0	-22846.0	-5645598.0
16	15	9	27	8	215.0	30241.0	-22773.0	-5644739.0
16	15	9	27	8	216.0	21569.0	-22704.0	-5644200.0
16	15	9	27	9	217.0	1479.0	-22545.0	-5645206.0
16	15	9	27	9	218.0	-5904.0	-22627.0	-5645309.0
16	15	9	27	9	219.0	-7267.0	-22159.0	-5644472.0
16	15	9	27	10	220.0	-9519.0	-21949.0	-5644304.0
16	15	9	27	10	221.0	-10226.0	-21689.0	-5645516.0
16	15	9	27	10	222.0	-10278.0	-21509.0	-5645203.0
16	15	9	27	11	224.0	-37513.0	-20707.0	-5643971.0
16	15	9	27	11	225.0	-50773.0	-21007.0	-5645112.0
16	15	9	27	11	226.0	-59231.0	-22749.0	-5644969.0
16	15	9	27	12	227.0	-55691.0	-23042.0	-5644139.0
16	15	9	27	12	228.0	-51048.0	-23071.0	-5643576.0
16	15	9	27	12	229.0	-41855.0	-22397.0	-5644865.0
16	15	9	27	44	230.0	-29946.0	-21737.0	-5645015.0
16	15	9	27	44	231.0	-17926.0	-21114.0	-5644226.0
16	15	9	27	45	232.0	-7656.0	-19873.0	-5643589.0
16	15	9	27	45	233.0	6570.0	-17212.0	-5644656.0
16	15	9	27	45	234.0	28531.0	-15687.0	-5644824.0
16	15	9	27	46	235.0	55681.0	-14929.0	-5644079.0
16	15	9	27	46	236.0	85026.0	-14239.0	-5643686.0
16	15	9	27	47	237.0	105541.0	-13544.0	-5645229.0
16	15	9	27	47	238.0	119386.0	-12389.0	-5645130.0
16	15	9	27	47	239.0	127897.0	-11971.0	-5644362.0
16	15	9	27	48	240.0	134927.0	-11097.0	-5644109.0
16	15	9	27	48	241.0	136958.0	-11029.0	-5644955.0
16	15	9	27	86	242.0	136544.0	-10372.0	-5644391.0
16	15	9	27	86	243.0	139543.0	-9556.0	-5643625.0
16	15	9	27	87	244.0	145118.0	-9230.0	-5644035.0
16	15	9	27	87	245.0	142359.0	-8827.0	-5644869.0
16	15	9	27	87	247.0	99582.0	-7877.0	-5643434.0
16	15	9	27	88	248.0	72149.0	-10163.0	-5644245.0
16	15	9	27	88	249.0	53458.0	-10836.0	-5645007.0
16	15	9	27	89	250.0	39796.0	-10215.0	-5644189.0
16	15	9	27	89	251.0	26713.0	-9406.0	-5643600.0
16	15	9	27	89	252.0	6919.0	-8577.0	-5644607.0
16	15	9	27	130	253.0	-19730.0	-8093.0	-5645062.0
16	15	9	27	131	254.0	-45716.0	-7619.0	-5644177.0
16	15	9	27	131	255.0	-67314.0	-5651.0	-5643537.0
16	15	9	27	132	0.0	-87041.0	-4583.0	-5644302.0
16	15	9	27	132	1.0	-112091.0	-4010.0	-5644821.0
16	15	9	27	132	2.0	-137197.0	-3252.0	-5643967.0
16	15	9	27	133	3.0	-153861.0	-3155.0	-5643359.0
16	15	9	27	176	4.0	-168159.0	-2738.0	-5644279.0
16	15	9	27	176	5.0	-180591.0	-1906.0	-5644704.0
16	15	9	27	177	6.0	-190187.0	-1581.0	-5643864.0
16	15	9	27	177	7.0	-197321.0	-1561.0	-5643256.0
16	15	9	27	178	8.0	-202113.0	-1517.0	-5644233.0
16	15	9	27	178	9.0	-200625.0	-1307.0	-5644702.0
16	15	9	27	178	10.0	-189106.0	-1211.0	-5643919.0
16	15	9	27	179	11.0	-179622.0	-1173.0	-5643396.0
16	15	9	27	179	36.0	336980.0	-1147.0	-5644790.0
16	15	9	27	179	37.0	321539.0	-3164.0	-5644892.0
16	15	9	27	180	38.0	253611.0	-4322.0	-5644137.0
16	15	9	27	180	39.0	-109143.0	-4382.0	-5643431.0
16	15	9	27	181	40.0	-727084.0	-4671.0	-5644639.0
16	15	9	27	181	41.0	-1224486.0	-5072.0	-5644847.0
16	15	9	27	181	42.0	-1331359.0	-5336.0	-5644107.0
16	15	9	27	222	43.0	-1113461.0	-4992.0	-5643632.0
16	15	9	27	270	44.0	-726541.0	-3426.0	-5644534.0
16	15	9	27	271	45.0	-300231.0	-2786.0	-5644202.0
16	15	9	27	271	46.0	-22179.0	-1972.0	-5643639.0
16	15	9	27	272	47.0	74530.0	-1767.0	-5644744.0
16	15	9	27	272	48.0	164173.0	-1202.0	-5645281.0
16	15	9	27	318	49.0	321072.0	-1456.0	-5644426.0
16	15	9	27	319	50.0	422321.0	-1578.0	-5643719.0
16	15	9	27	319	51.0	392144.0	-1846.0	-5644102.0
16	15	9	27	319	52.0	245963.0	-1718.0	-5645226.0
16	15	9	27	320	53.0	68169.0	-2207.0	-5644491.0
16	15	9	27	320	54.0	-19682.0	-2362.0	-5643779.0
16	15	9	27	320	55.0	-11612.0	-2384.0	-5644490.0
16	15	9	27	321	56.0	61506.0	-2599.0	-5645445.0
16	15	9	27	321	58.0	260054.0	-2161.0	-5643992.0
16	15	9	27	321	81.0	-294154.0	-1435.0	-5644351.0
16	15	9	27	322	103.0	214823.0	608.0	-5645484.0
16	15	9	27	322	104.0	205929.0	63.0	-5644687.0
16	15	9	27	322	105.0	185676.0	-1477.0	-5643914.0
16	15	9	27	323	106.0	169810.0	-1108.0	-5644295.0
16	15	9	27	323	107.0	164365.0	-661.0	-5645343.0
16	15	9	27	323	108.0	165098.0	-388.0	-5644661.0
16	15	9	27	323	109.0	163198.0	-387.0	-5643963.0
16	15	9	27	324	110.0	156169.0	-103.0	-5644764.0
16	15	9	27	324	111.0	152604.0	1462.0	-5645436.0
16	15	9	27	324	112.0	157211.0	3544.0	-5644666.0
16	15	9	27	370	113.0	158124.0	4430.0	-5643956.0
16	15	9	27	371	114.0	148434.0	5208.0	-5644917.0
16	15	9	27	371	115.0	134748.0	5888.0	-5645454.0
16	15	9	27	372	116.0	118303.0	6574.0	-5644684.0
16	15	9	27	372	117.0	111191.0	7622.0	-5643856.0
16	15	9	27	372	118.0	114883.0	8547.0	-5644275.0
16	15	9	27	373	119.0	117535.0	9493.0	-5645188.0
16	15	9	27	373	120.0	112104.0	10669.0	-5644553.0
16	15	9	27	373	121.0	105999.0	11894.0	-5643747.0
16	15	9	27	374	122.0	125847.0	13460.0	-5644380.0
16	15	9	27	374	123.0	160630.0	15035.0	-5645018.0
16	15	9	27	374	124.0	166994.0	16296.0	-5644314.0
16	15	9	27	374	126.0	114960.0	19483.0	-5644797.0
16	15	9	27	375	127.0	51062.0	19456.0	-5644987.0
16	15	9	27	375	128.0	-27490.0	22948.0	-5644240.0
16	15	9	27	375	148.0	84571.0	54791.0	-5643655.0
16	15	9	27	376	149.0	119172.0	53559.0	-5643754.0
16	15	9	27	376	150.0	153761.0	51691.0	-5644915.0
16	15	9	27	376	151.0	186683.0	51231.0	-5644313.0
16	15	9	27	376	152.0	204908.0	50757.0	-5643585.0
16	15	9	27	377	153.0	202686.0	50078.0	-5644275.0
16	15	9	27	422	154.0	176186.0	49606.0	-5645401.0
16	15	9	27	422	155.0	121099.0	49033.0	-5644694.0
16	15	9	27	423	156.0	61530.0	50278.0	-5643986.0
16	15	9	27	423	157.0	12367.0	50428.0	-5644651.0
16	15	9	27	423	158.0	-43922.0	49538.0	-5645482.0
16	15	9	27	424	159.0	-135981.0	48649.0	-5644725.0
16	15	9	27	424	160.0	-356017.0	47091.0	-5643988.0
16	15	9	27	424	161.0	-708787.0	44968.0	-5644768.0
16	15	9	27	425	162.0	-811552.0	43502.0	-5645495.0
16	15	9	27	425	163.0	-371704.0	41792.0	-5644736.0
16	15	9	27	425	164.0	257941.0	40454.0	-5643989.0
16	15	9	27	426	165.0	528901.0	39686.0	-5644554.0
16	15	9	27	426	166.0	446739.0	38030.0	-5645714.0
16	15	9	27	426	167.0	367066.0	36221.0	-5645120.0
16	15	9	27	426	168.0	293976.0	34897.0	-5644308.0
16	15	9	27	427	171.0	73102.0	28581.0	-5645169.0
16	15	9	27	427	172.0	27216.0	24129.0	-5644355.0
16	15	9	27	427	173.0	-21188.0	21244.0	-5644766.0
16	15	9	27	428	174.0	-87531.0	19987.0	-5645711.0
16	15	9	27	428	175.0	-177501.0	18076.0	-5645074.0
16	15	9	27	428	176.0	-239909.0	16219.0	-5644247.0
16	15	9	27	474	177.0	-230204.0	14291.0	-5644885.0
16	15	9	27	474	178.0	-156627.0	13665.0	-5645820.0
16	15	9	27	475	179.0	-42449.0	14170.0	-5645177.0
16	15	9	27	475	180.0	83073.0	12965.0	-5644311.0
16	15	9	27	476	181.0	167708.0	11386.0	-5644632.0
16	15	9	27	476	182.0	213260.0	10146.0	-5645600.0
16	15	9	27	476	183.0	232203.0	8669.0	-5645041.0
16	15	9	27	477	184.0	218011.0	7494.0	-5644180.0
16	15	9	27	477	185.0	200036.0	5721.0	-5644577.0
16	15	9	27	477	186.0	178519.0	3764.0	-5645519.0
16	15	9	27	478	187.0	131911.0	2712.0	-5644932.0
16	15	9	27	478	188.0	85389.0	1826.0	-5644142.0
16	15	9	27	479	189.0	67766.0	924.0	-5644881.0
16	15	9	27	479	190.0	67595.0	-372.0	-5645628.0
16	15	9	27	479	191.0	64549.0	-2426.0	-5644947.0
16	15	9	27	480	193.0	69806.0	-4916.0	-5645059.0
16	15	9	27	480	194.0	80690.0	-7554.0	-5645478.0
16	15	9	27	480	195.0	90464.0	-9801.0	-5644707.0
16	15	9	27	481	196.0	105455.0	-11557.0	-5643924.0
16	15	9	27	481	197.0	140613.0	-12421.0	-5644139.0
16	15	9	27	481	198.0	196211.0	-13461.0	-5644677.0
16	15	9	27	526	199.0	260234.0	-14580.0	-5644006.0
16	15	9	27	527	200.0	309696.0	-15219.0	-5644176.0
16	15	9	27	527	201.0	346259.0	-13395.0	-5645482.0
16	15	9	27	527	202.0	364658.0	-13151.0	-5644928.0
16	15	9	27	528	203.0	363350.0	-13717.0	-5644192.0
16	15	9	27	528	204.0	351906.0	-14314.0	-5644898.0
16	15	9	27	528	205.0	331023.0	-15231.0	-5646050.0
16	15	9	27	528	206.0	311783.0	-15734.0	-5645360.0
16	15	9	27	529	207.0	289703.0	-16651.0	-5644572.0
16	15	9	27	529	208.0	271767.0	-17301.0	-5644774.0
16	15	9	27	529	209.0	247899.0	-18082.0	-5646068.0
16	15	9	27	530	210.0	220069.0	-18211.0	-5645527.0
16	15	9	27	530	211.0	195758.0	-18320.0	-5644663.0
16	15	9	27	530	212.0	175358.0	-18552.0	-5644696.0
16	15	9	27	530	213.0	167888.0	-19244.0	-5645920.0
16	15	9	27	531	215.0	171033.0	-19857.0	-5644587.0
16	15	9	27	531	216.0	168481.0	-20439.0	-5644354.0
16	15	9	27	531	217.0	162796.0	-23096.0	-5645431.0
16	15	9	27	531	218.0	148326.0	-24118.0	-5645099.0
16	15	9	27	532	219.0	126336.0	-24429.0	-5644273.0
16	15	9	27	532	220.0	95133.0	-24277.0	-5644677.0
16	15	9	27	532	221.0	56621.0	-24605.0	-5645519.0
16	15	9	27	577	222.0	16203.0	-24774.0	-5644911.0
16	15	9	27	578	223.0	-24399.0	-24314.0	-5644122.0
16	15	9	27	578	224.0	-58989.0	-22142.0	-5645072.0
16	15	9	27	578	225.0	-85009.0	-21375.0	-5645782.0
16	15	9	27	579	226.0	-104871.0	-21661.0	-5645097.0
16	15	9	27	579	227.0	-125394.0	-21241.0	-5644190.0
16	15	9	27	580	228.0	-136772.0	-21286.0	-5644356.0
16	15	9	27	580	229.0	-142437.0	-20797.0	-5645416.0
16	15	9	27	580	230.0	-151854.0	-21021.0	-5644854.0
16	15	9	27	581	231.0	-152646.0	-20281.0	-5644008.0
16	15	9	27	581	232.0	-146273.0	-20091.0	-5644192.0
16	15	9	27	581	233.0	-132351.0	-20530.0	-5645392.0
16	15	9	27	582	234.0	-122776.0	-20976.0	-5644863.0
16	15	9	27	582	235.0	-121532.0	-20545.0	-5644137.0
16	15	9	27	582	236.0	-127077.0	-20136.0	-5645075.0
16	15	9	27	583	238.0	-133801.0	-18975.0	-5645119.0
16	15	9	27	583	239.0	-144714.0	-20339.0	-5644305.0
16	15	9	27	583	240.0	-142581.0	-21351.0	-5644746.0
16	15	9	27	584	241.0	-135500.0	-20881.0	-5645320.0
16	15	9	27	584	242.0	-136192.0	-20604.0	-5644609.0
16	15	9	27	584	243.0	-133987.0	-20334.0	-5643904.0
16	15	9	27	585	244.0	-130326.0	-19897.0	-5644824.0
16	15	9	27	585	245.0	-113173.0	-18384.0	-5645145.0
16	15	9	27	585	246.0	-89856.0	-15684.0	-5644356.0
16	15	9	27	586	247.0	-66992.0	-14344.0	-5643779.0
16	15	9	27	586	248.0	-39232.0	-13637.0	-5644999.0
16	15	9	27	630	249.0	1228.0	-12911.0	-5645309.0
16	15	9	27	630	250.0	48494.0	-12106.0	-5644494.0
16	15	9	27	631	251.0	87808.0	-11361.0	-5644106.0
16	15	9	27	631	252.0	121991.0	-11264.0	-5645332.0
16	15	9	27	632	253.0	149418.0	-11109.0	-5645216.0
16	15	9	27	632	254.0	169121.0	-10295.0	-5644422.0
16	15	9	27	633	255.0	179268.0	-9569.0	-5644323.0
16	15	9	27	633	0.0	170505.0	-8796.0	-5645544.0
16	15	9	27	633	1.0	152361.0	-8210.0	-5645146.0
16	15	9	27	634	2.0	125952.0	-7896.0	-5644291.0
16	15	9	27	634	4.0	82461.0	-6259.0	-5645039.0
16	15	9	27	634	5.0	66408.0	-6089.0	-5645115.0
16	15	9	27	635	6.0	56843.0	-7945.0	-5644214.0
16	15	9	27	635	7.0	42204.0	-8203.0	-5643783.0
16	15	9	27	636	8.0	21946.0	-8009.0	-5645030.0
16	15	9	27	636	9.0	243.0	-7734.0	-5645119.0
16	15	9	27	636	10.0	-23752.0	-7141.0	-5644261.0
16	15	9	27	637	11.0	-40142.0	-7060.0	-5643937.0
16	15	9	27	637	12.0	-47969.0	-5974.0	-5645315.0
16	15	9	27	637	13.0	-49896.0	-3645.0	-5645344.0
16	15	9	27	638	14.0	-59928.0	-2371.0	-5644489.0
16	15	9	27	638	15.0	-79536.0	-2114.0	-5644071.0
16	15	9	27	638	16.0	-96546.0	-1709.0	-5645212.0
16	15	9	27	639	17.0	-102972.0	-1758.0	-5645202.0
16	15	9	27	639	18.0	-112001.0	-1311.0	-5644294.0
16	15	9	27	639	19.0	-132389.0	-1394.0	-5643845.0
16	15	9	27	640	20.0	-145582.0	-1262.0	-5645114.0
16	15	9	27	640	21.0	-155619.0	-198.0	-5645172.0
16	15	9	27	640	22.0	-169270.0	271.0	-5644318.0
16	15	9	27	641	23.0	-186882.0	20.0	-5643872.0
16	15	9	27	641	24.0	-191367.0	531.0	-5645247.0
16	15	9	27	686	25.0	-183074.0	1025.0	-5645337.0
16	15	9	27	686	27.0	-161311.0	451.0	-5644268.0
16	15	9	27	687	28.0	-141287.0	-1366.0	-5645651.0
16	15	9	27	687	29.0	-114177.0	-2478.0	-5645479.0
16	15	9	27	687	30.0	-77565.0	-2361.0	-5644661.0
16	15	9	27	688	31.0	-45609.0	-2444.0	-5644154.0
16	15	9	27	688	32.0	-24666.0	-2590.0	-5645512.0
16	15	9	27	688	33.0	-7913.0	-2759.0	-5645696.0
16	15	9	27	688	34.0	-1349.0	-2385.0	-5644906.0
16	15	9	27	689	35.0	1273.0	-311.0	-5644157.0
16	15	9	27	689	36.0	5960.0	184.0	-5644907.0
16	15	9	27	689	37.0	24523.0	734.0	-5645427.0
16	15	9	27	690	38.0	42520.0	881.0	-5644726.0
16	15	9	27	690	39.0	58136.0	467.0	-5643983.0
16	15	9	27	690	40.0	76096.0	270.0	-5644880.0
16	15	9	27	691	41.0	78643.0	793.0	-5645329.0
16	15	9	27	691	42.0	85378.0	755.0	-5644617.0
16	15	9	27	691	43.0	110787.0	725.0	-5643974.0
16	15	9	27	692	44.0	144186.0	476.0	-5645151.0
16	15	9	27	692	45.0	175581.0	181.0	-5645379.0
16	15	9	27	692	46.0	192079.0	-874.0	-5644671.0
16	15	9	27	692	47.0	204325.0	-857.0	-5644281.0
16	15	9	27	693	49.0	165113.0	-484.0	-5645394.0
16	15	9	27	693	50.0	-105434.0	-1503.0	-5644599.0
16	15	9	27	693	51.0	-591273.0	-3760.0	-5643777.0
16	15	9	27	694	52.0	-1011394.0	-3911.0	-5644934.0
16	15	9	27	694	53.0	-1178614.0	-4367.0	-5645572.0
16	15	9	27	694	54.0	-1075073.0	-4246.0	-5644862.0
16	15	9	27	694	55.0	-771135.0	-4348.0	-5644126.0
16	15	9	27	752	56.0	-387276.0	-4181.0	-5645042.0
16	15	9	27	753	57.0	-76297.0	-3624.0	-5645700.0
16	15	9	27	753	58.0	90931.0	-1439.0	-5645008.0
16	15	9	27	754	59.0	184951.0	-11.0	-5644359.0
16	15	9	27	754	60.0	311322.0	726.0	-5645160.0
16	15	9	27	754	61.0	427031.0	1128.0	-5645203.0
16	15	9	27	755	62.0	395656.0	1703.0	-5644530.0
16	15	9	27	755	63.0	277148.0	2116.0	-5645287.0
16	15	9	27	755	64.0	224764.0	2202.0	-5646029.0
16	15	9	27	756	65.0	198082.0	2463.0	-5645206.0
16	15	9	27	756	66.0	118454.0	2134.0	-5644441.0
16	15	9	27	756	67.0	50749.0	2109.0	-5644726.0
16	15	9	27	757	68.0	65023.0	1893.0	-5646041.0
16	15	9	27	757	69.0	162424.0	1353.0	-5645438.0
16	15	9	27	757	70.0	285623.0	1229.0	-5644681.0
16	15	9	27	758	72.0	403402.0	1072.0	-5645925.0
16	15	9	27	758	73.0	296306.0	-1239.0	-5645434.0
16	15	9	27	759	74.0	123885.0	-2599.0	-5644630.0
16	15	9	27	759	75.0	-18657.0	-2936.0	-5644980.0
16	15	9	27	759	76.0	-62506.0	-3512.0	-5645915.0
16	15	9	27	760	77.0	-69271.0	-3771.0	-5645242.0
16	15	9	27	760	78.0	-103311.0	-3713.0	-5644462.0
16	15	9	27	760	79.0	-141121.0	-2907.0	-5644825.0
16	15	9	27	761	80.0	-182044.0	-305.0	-5645707.0
16	15	9	27	761	81.0	-242632.0	476.0	-5645058.0
16	15	9	27	761	82.0	-312249.0	335.0	-5644219.0
16	15	9	27	762	83.0	-353084.0	770.0	-5644197.0
16	15	9	27	762	84.0	-369615.0	648.0	-5645227.0
16	15	9	27	763	85.0	-352837.0	514.0	-5644745.0
16	15	9	27	818	86.0	-308924.0	784.0	-5643914.0
16	15	9	27	819	87.0	-265376.0	975.0	-5644518.0
16	15	9	27	819	88.0	-236492.0	601.0	-5645392.0
16	15	9	27	820	89.0	-205084.0	-771.0	-5644771.0
16	15	9	27	820	90.0	-173095.0	-937.0	-5643969.0
16	15	9	27	820	91.0	-154903.0	-1181.0	-5644797.0
16	15	9	27	820	92.0	-156482.0	-1562.0	-5645391.0
16	15	9	27	821	94.0	-183769.0	-1256.0	-5643891.0
16	15	9	27	821	95.0	-194016.0	-3108.0	-5644575.0
16	15	9	27	821	96.0	-199129.0	-5336.0	-5645027.0
16	15	9	27	822	97.0	-206204.0	-5280.0	-5644312.0
16	15	9	27	822	98.0	-210961.0	-5298.0	-5643473.0
16	15	9	27	822	99.0	-195287.0	-5368.0	-5644174.0
16	15	9	27	822	100.0	-171211.0	-5606.0	-5644949.0
16	15	9	27	823	101.0	-149508.0	-5611.0	-5644281.0
16	15	9	27	823	102.0	-117149.0	-4301.0	-5643481.0
16	15	9	27	823	103.0	-79652.0	-1775.0	-5644052.0
16	15	9	27	824	104.0	-45033.0	-1208.0	-5644950.0
16	15	9	27	824	105.0	998.0	-654.0	-5644298.0
16	15	9	27	824	106.0	40376.0	-659.0	-5643593.0
16	15	9	27	824	107.0	73839.0	-692.0	-5644582.0
16	15	9	27	825	108.0	99466.0	-941.0	-5645148.0
16	15	9	27	825	109.0	122313.0	-757.0	-5644436.0
16	15	9	27	825	110.0	142844.0	-366.0	-5643829.0
16	15	9	27	826	111.0	157451.0	293.0	-5644985.0
16	15	9	27	826	112.0	167253.0	656.0	-5645276.0
16	15	9	27	826	113.0	172627.0	954.0	-5644511.0
16	15	9	27	827	114.0	166288.0	1369.0	-5643732.0
16	15	9	27	827	115.0	163899.0	1261.0	-5644178.0
16	15	9	27	827	117.0	135792.0	1718.0	-5644339.0
16	15	9	27	828	118.0	118723.0	-77.0	-5643736.0
16	15	9	27	828	119.0	117871.0	-817.0	-5644807.0
16	15	9	27	828	120.0	124442.0	-408.0	-5645307.0
16	15	9	27	828	121.0	124959.0	-229.0	-5644481.0
16	15	9	27	829	122.0	134322.0	-56.0	-5643946.0
16	15	9	27	889	123.0	155109.0	551.0	-5645081.0
16	15	9	27	889	124.0	171997.0	2238.0	-5645437.0
16	15	9	27	890	125.0	175974.0	4849.0	-5644594.0
16	15	9	27	890	126.0	167693.0	5758.0	-5644091.0
16	15	9	27	890	127.0	160356.0	6358.0	-5645261.0
16	15	9	27	891	128.0	152986.0	7098.0	-5645450.0
16	15	9	27	891	129.0	138256.0	8323.0	-5644580.0
16	15	9	27	891	130.0	117685.0	9328.0	-5643995.0
16	15	9	27	892	131.0	96758.0	10059.0	-5644950.0
16	15	9	27	892	132.0	83413.0	11462.0	-5645431.0
16	15	9	27	892	133.0	65494.0	12674.0	-5644576.0
16	15	9	27	892	134.0	45467.0	13191.0	-5644068.0
16	15	9	27	892	135.0	30547.0	14204.0	-5645026.0
16	15	9	27	893	136.0	18416.0	15413.0	-5645126.0
16	15	9	27	893	137.0	8767.0	17072.0	-5644244.0
16	15	9	27	893	139.0	-23711.0	19826.0	-5645159.0
16	15	9	27	894	140.0	-51456.0	20242.0	-5645084.0
16	15	9	27	894	141.0	-82420.0	20119.0	-5644190.0
16	15	9	27	894	142.0	-117666.0	21534.0	-5643887.0
16	15	9	27	894	143.0	-143396.0	22609.0	-5645449.0
16	15	9	27	895	144.0	-158532.0	24467.0	-5645484.0
16	15	9	27	895	145.0	-160198.0	26096.0	-5644622.0
16	15	9	27	961	146.0	-143773.0	28031.0	-5644013.0
16	15	9	27	962	147.0	-123672.0	31529.0	-5645009.0
16	15	9	27	962	148.0	-99492.0	36083.0	-5645246.0
16	15	9	27	962	149.0	-78069.0	38380.0	-5644424.0
16	15	9	27	963	150.0	-57239.0	40314.0	-5643812.0
16	15	9	27	963	151.0	-30871.0	41656.0	-5645026.0
16	15	9	27	963	152.0	-7892.0	43523.0	-5645349.0
16	15	9	27	963	153.0	15836.0	45239.0	-5644557.0
16	15	9	27	963	154.0	44163.0	46251.0	-5644141.0
16	15	9	27	964	155.0	78006.0	47536.0	-5645627.0
16	15	9	27	964	156.0	114057.0	48313.0	-5645559.0
16	15	9	27	964	157.0	158463.0	48350.0	-5644770.0
16	15	9	27	964	158.0	200939.0	49031.0	-5644354.0
16	15	9	27	965	159.0	234095.0	50293.0	-5645696.0
16	15	9	27	965	160.0	262488.0	50849.0	-5645558.0
16	15	9	27	965	162.0	277590.0	51453.0	-5644122.0
16	15	9	27	965	163.0	254088.0	49128.0	-5645255.0
16	15	9	27	966	164.0	197089.0	47984.0	-5645394.0
16	15	9	27	966	165.0	123033.0	47544.0	-5644622.0
16	15	9	27	966	166.0	30162.0	47011.0	-5644063.0
16	15	9	27	966	167.0	-73947.0	46375.0	-5645102.0
16	15	9	27	967	168.0	-230144.0	45461.0	-5644846.0
16	15	9	27	967	169.0	-533434.0	45441.0	-5644084.0
16	15	9	27	967	170.0	-877037.0	46835.0	-5644104.0
16	15	9	27	967	171.0	-848552.0	45919.0	-5645241.0
16	15	9	27	968	172.0	-301497.0	44739.0	-5644691.0
16	15	9	27	968	173.0	322021.0	43561.0	-5644088.0
16	15	9	27	968	174.0	547819.0	42179.0	-5644881.0
16	15	9	27	968	175.0	484546.0	40988.0	-5645642.0
16	15	9	27	968	176.0	433504.0	39317.0	-5644814.0
16	15	9	27	969	177.0	377483.0	37698.0	-5644196.0
16	15	9	27	969	178.0	284705.0	35411.0	-5645068.0
16	15	9	27	969	179.0	206594.0	34361.0	-5645439.0
16	15	9	27	969	180.0	136669.0	32804.0	-5644549.0
16	15	9	27	970	181.0	81053.0	30818.0	-5643891.0
16	15	9	27	970	182.0	58274.0	29179.0	-5644745.0
16	15	9	27	970	184.0	8200.0	25748.0	-5644737.0
16	15	9	27	970	185.0	2769.0	22678.0	-5644126.0
16	15	9	27	971	186.0	3766.0	19191.0	-5645259.0
16	15	9	27	972	187.0	-9512.0	17449.0	-5645804.0
16	15	9	27	973	188.0	-35293.0	15295.0	-5644977.0
16	15	9	27	974	189.0	-61669.0	13719.0	-5644351.0
16	15	9	28	36	190.0	-99169.0	12289.0	-5645287.0
16	15	9	28	36	191.0	-160664.0	10911.0	-5645468.0
16	15	9	28	36	192.0	-233599.0	10982.0	-5644628.0
16	15	9	28	37	193.0	-284584.0	10510.0	-5644060.0
16	15	9	28	37	194.0	-259296.0	9266.0	-5645079.0
16	15	9	28	37	195.0	-190517.0	7881.0	-5645113.0
16	15	9	28	38	196.0	-113554.0	6110.0	-5644332.0
16	15	9	28	38	197.0	-49220.0	4869.0	-5643745.0
16	15	9	28	38	198.0	-17119.0	3498.0	-5644850.0
16	15	9	28	39	199.0	6643.0	2544.0	-5644906.0
16	15	9	28	116	200.0	35137.0	888.0	-5644136.0
16	15	9	28	118	201.0	41154.0	-26.0	-5643476.0
16	15	9	28	119	202.0	28275.0	-640.0	-5644577.0
16	15	9	28	120	203.0	36138.0	-2104.0	-5644809.0
16	15	9	28	122	204.0	76969.0	-2924.0	-5644048.0
16	15	9	28	123	207.0	256357.0	-6378.0	-5644724.0
16	15	9	28	124	208.0	283859.0	-9633.0	-5643980.0
16	15	9	28	125	209.0	300611.0	-10926.0	-5643699.0
16	15	9	28	126	210.0	310756.0	-9671.0	-5645111.0
16	15	9	28	127	211.0	310684.0	-9181.0	-5644716.0
16	15	9	28	128	212.0	309451.0	-9559.0	-5643969.0
16	15	9	28	129	229.0	82938.0	-15850.0	-5644699.0
16	15	9	28	130	230.0	67936.0	-17739.0	-5645211.0
16	15	9	28	132	231.0	54814.0	-20163.0	-5644392.0
16	15	9	28	133	232.0	37695.0	-19597.0	-5643664.0
16	15	9	28	134	233.0	17795.0	-18125.0	-5644447.0
16	15	9	28	135	252.0	69190.0	-17581.0	-5644364.0
16	15	9	28	136	253.0	83436.0	-19259.0	-5645638.0
16	15	9	28	138	254.0	89991.0	-19609.0	-5645934.0
16	15	9	28	139	255.0	81979.0	-19123.0	-5645175.0
16	15	9	28	140	0.0	71587.0	-18277.0	-5644489.0
16	15	9	28	141	1.0	60128.0	-18085.0	-5645606.0
16	15	9	28	142	2.0	46970.0	-17605.0	-5645792.0
16	15	9	28	143	3.0	37661.0	-16461.0	-5645043.0
16	15	9	28	144	4.0	38982.0	-13056.0	-5644252.0
16	15	9	28	145	5.0	53880.0	-11534.0	-5645219.0
16	15	9	28	146	6.0	67439.0	-11608.0	-5645906.0
16	15	9	28	202	7.0	76685.0	-10701.0	-5645209.0
16	15	9	28	204	8.0	79552.0	-9709.0	-5644508.0
16	15	9	28	206	9.0	77114.0	-9262.0	-5645549.0
16	15	9	28	208	10.0	71021.0	-8852.0	-5645852.0
16	15	9	28	210	11.0	66267.0	-8550.0	-5645112.0
16	15	9	28	212	12.0	63541.0	-7989.0	-5644519.0
16	15	9	28	214	13.0	61399.0	-7455.0	-5645454.0
16	15	9	28	216	14.0	54838.0	-6383.0	-5645313.0
16	15	9	28	219	15.0	44364.0	-6312.0	-5644606.0
16	15	9	28	221	16.0	37994.0	-6043.0	-5644912.0
16	15	9	28	223	18.0	4791.0	-4523.0	-5645217.0
16	15	9	28	225	19.0	-9013.0	-5501.0	-5644481.0
16	15	9	28	228	20.0	-13861.0	-6603.0	-5644636.0
16	15	9	28	230	21.0	-28812.0	-4787.0	-5645737.0
16	15	9	28	232	22.0	-61351.0	-2942.0	-5645083.0
16	15	9	28	234	23.0	-93123.0	-2426.0	-5644406.0
16	15	9	28	235	41.0	-57279.0	-891.0	-5645659.0
16	15	9	28	236	42.0	-33764.0	-3257.0	-5644940.0
16	15	9	28	238	43.0	-11084.0	-4028.0	-5644395.0
16	15	9	28	239	44.0	13520.0	-3964.0	-5645736.0
16	15	9	28	240	45.0	48031.0	-3607.0	-5645892.0
16	15	9	28	242	46.0	95396.0	-3886.0	-5645139.0
16	15	9	28	243	47.0	152671.0	-4134.0	-5644397.0
16	15	9	28	245	48.0	210253.0	-3577.0	-5645366.0
16	15	9	28	246	49.0	255991.0	-798.0	-5645871.0
16	15	9	28	247	50.0	288868.0	-567.0	-5645132.0
16	15	9	28	249	51.0	319104.0	-567.0	-5644341.0
16	15	9	28	250	52.0	347134.0	-425.0	-5645401.0
16	15	9	28	252	53.0	357171.0	-407.0	-5645953.0
16	15	9	28	253	54.0	346980.0	335.0	-5645254.0
16	15	9	28	255	55.0	329019.0	239.0	-5644479.0
16	15	9	28	256	56.0	303033.0	208.0	-5645397.0
16	15	9	28	258	57.0	270505.0	-74.0	-5646067.0
16	15	9	28	260	58.0	228558.0	-455.0	-5645372.0
16	15	9	28	262	59.0	-17561.0	-626.0	-5644658.0
16	15	9	28	263	60.0	-553778.0	-1402.0	-5645817.0
16	15	9	28	264	61.0	-1062745.0	-1690.0	-5646206.0
16	15	9	28	266	63.0	-1118396.0	-1380.0	-5644757.0
16	15	9	28	267	64.0	-784471.0	-2918.0	-5645781.0
16	15	9	28	268	65.0	-374112.0	-4153.0	-5645951.0
16	15	9	28	269	66.0	-40284.0	-4632.0	-5645224.0
16	15	9	28	270	67.0	117466.0	-4829.0	-5644444.0
16	15	9	28	271	68.0	146812.0	-4729.0	-5644959.0
16	15	9	28	272	69.0	171923.0	-4899.0	-5645358.0
16	15	9	28	274	70.0	300611.0	-4351.0	-5644669.0
16	15	9	28	275	71.0	424978.0	-1991.0	-5644921.0
16	15	9	28	276	72.0	348793.0	-1013.0	-5646081.0
16	15	9	28	277	73.0	134865.0	-1081.0	-5645408.0
16	15	9	28	278	74.0	-27741.0	-1174.0	-5644701.0
16	15	9	28	279	75.0	-91491.0	-695.0	-5645517.0
16	15	9	28	280	76.0	-43148.0	-340.0	-5646269.0
16	15	9	28	281	77.0	141429.0	-630.0	-5645478.0
16	15	9	28	282	78.0	353866.0	-915.0	-5644791.0
16	15	9	28	283	79.0	471386.0	-749.0	-5645564.0
16	15	9	28	284	80.0	445559.0	-1239.0	-5646532.0
16	15	9	28	285	81.0	292071.0	-1117.0	-5645796.0
16	15	9	28	286	82.0	89502.0	-629.0	-5645007.0
16	15	9	28	287	83.0	-49181.0	6.0	-5645451.0
16	15	9	28	288	85.0	-72619.0	-344.0	-5645976.0
16	15	9	28	289	86.0	-46909.0	-849.0	-5645152.0
16	15	9	28	290	87.0	-40780.0	-2967.0	-5645092.0
16	15	9	28	290	88.0	-77607.0	-3445.0	-5646052.0
16	15	9	28	292	89.0	-172462.0	-3217.0	-5645541.0
16	15	9	28	292	90.0	-297021.0	-3159.0	-5644772.0
16	15	9	28	292	91.0	-410297.0	-3286.0	-5645872.0
16	15	9	28	298	92.0	-473931.0	-3782.0	-5646758.0
16	15	9	28	299	93.0	-502152.0	-3146.0	-5646033.0
16	15	9	28	300	94.0	-501566.0	-897.0	-5645196.0
16	15	9	28	301	95.0	-473908.0	-539.0	-5645659.0
16	15	9	28	302	96.0	-441096.0	-489.0	-5646637.0
16	15	9	28	303	97.0	-398746.0	-81.0	-5646019.0
16	15	9	28	304	98.0	-366509.0	81.0	-5645125.0
16	15	9	28	305	99.0	-336198.0	169.0	-5645154.0
16	15	9	28	306	100.0	-321512.0	96.0	-5646311.0
16	15	9	28	307	101.0	-342494.0	418.0	-5645876.0
16	15	9	28	308	102.0	-359833.0	699.0	-5644995.0
16	15	9	28	309	103.0	-361342.0	446.0	-5645066.0
16	15	9	28	310	104.0	-346746.0	336.0	-5646217.0
16	15	9	28	383	105.0	-317268.0	929.0	-5645771.0
16	15	9	28	385	106.0	-290871.0	1219.0	-5644917.0
16	15	9	28	387	108.0	-211316.0	1025.0	-5646187.0
16	15	9	28	389	109.0	-161544.0	-1082.0	-5645569.0
16	15	9	28	392	110.0	-108620.0	-2360.0	-5644765.0
16	15	9	28	394	111.0	-60793.0	-2487.0	-5645497.0
16	15	9	28	396	112.0	-15055.0	-2666.0	-5646241.0
16	15	9	28	398	113.0	33693.0	-2323.0	-5645566.0
16	15	9	28	400	114.0	92508.0	-2244.0	-5644715.0
16	15	9	28	403	115.0	149047.0	-1724.0	-5645024.0
16	15	9	28	404	116.0	203871.0	422.0	-5646132.0
16	15	9	28	406	117.0	249862.0	1276.0	-5645573.0
16	15	9	28	408	118.0	283817.0	1652.0	-5644754.0
16	15	9	28	410	119.0	300058.0	1247.0	-5645334.0
16	15	9	28	412	120.0	301513.0	1679.0	-5646256.0
16	15	9	28	413	121.0	303598.0	1815.0	-5645610.0
16	15	9	28	414	122.0	302262.0	1699.0	-5644912.0
16	15	9	28	415	123.0	287548.0	2040.0	-5645556.0
16	15	9	28	416	124.0	265013.0	2403.0	-5645677.0
16	15	9	28	417	125.0	236334.0	2636.0	-5644948.0
16	15	9	28	418	126.0	212178.0	2842.0	-5645422.0
16	15	9	28	420	127.0	193553.0	3144.0	-5646675.0
16	15	9	28	421	128.0	176024.0	3189.0	-5645988.0
16	15	9	28	423	130.0	142742.0	4133.0	-5645567.0
16	15	9	28	424	131.0	118215.0	3170.0	-5646486.0
16	15	9	28	425	132.0	89721.0	1664.0	-5645817.0
16	15	9	28	427	133.0	74106.0	1915.0	-5645061.0
16	15	9	28	428	134.0	74468.0	2526.0	-5645494.0
16	15	9	28	429	135.0	80633.0	3414.0	-5646543.0
16	15	9	28	430	136.0	81793.0	4098.0	-5645882.0
16	15	9	28	432	137.0	80227.0	4651.0	-5645077.0
16	15	9	28	433	138.0	89376.0	6897.0	-5645449.0
16	15	9	28	434	139.0	94582.0	9823.0	-5646704.0
16	15	9	28	436	140.0	88223.0	10646.0	-5646119.0
16	15	9	28	437	141.0	82392.0	11720.0	-5645389.0
16	15	9	28	438	142.0	66710.0	13138.0	-5645972.0
16	15	9	28	439	143.0	34737.0	14594.0	-5646662.0
16	15	9	28	439	144.0	2252.0	15803.0	-5645954.0
16	15	9	28	440	145.0	-15941.0	16974.0	-5645167.0
16	15	9	28	441	146.0	-18726.0	18524.0	-5645609.0
16	15	9	28	441	147.0	-21881.0	20482.0	-5646603.0
16	15	9	28	442	148.0	-20102.0	21449.0	-5645954.0
16	15	9	28	442	149.0	-25602.0	23154.0	-5645080.0
16	15	9	28	442	150.0	-41457.0	25179.0	-5645436.0
16	15	9	28	443	151.0	-55696.0	26602.0	-5646552.0
16	15	9	28	443	153.0	-68152.0	30419.0	-5645081.0
16	15	9	28	443	154.0	-66424.0	29998.0	-5645201.0
16	15	9	28	444	155.0	-64620.0	30617.0	-5646232.0
16	15	9	28	444	156.0	-66254.0	32651.0	-5645711.0
16	15	9	28	445	157.0	-62853.0	34209.0	-5644859.0
16	15	9	28	446	158.0	-62753.0	36024.0	-5645324.0
16	15	9	28	446	159.0	-58120.0	37313.0	-5646257.0
16	15	9	28	447	160.0	-43490.0	39641.0	-5645656.0
16	15	9	28	447	161.0	-30350.0	43363.0	-5644802.0
16	15	9	28	447	162.0	-15579.0	44908.0	-5645481.0
16	15	9	28	448	163.0	-4648.0	46019.0	-5646156.0
16	15	9	28	448	164.0	4584.0	47571.0	-5645452.0
16	15	9	28	448	165.0	21484.0	48535.0	-5644609.0
16	15	9	28	449	166.0	48096.0	48877.0	-5644856.0
16	15	9	28	449	167.0	89611.0	49773.0	-5646152.0
16	15	9	28	450	168.0	136788.0	50273.0	-5645669.0
16	15	9	28	450	169.0	172879.0	50499.0	-5644862.0
16	15	9	28	450	170.0	188756.0	50277.0	-5645249.0
16	15	9	28	450	171.0	193089.0	50298.0	-5646512.0
16	15	9	28	451	172.0	176239.0	50201.0	-5645954.0
16	15	9	28	451	173.0	143543.0	49939.0	-5645118.0
16	15	9	28	452	175.0	12112.0	48553.0	-5646569.0
16	15	9	28	452	176.0	-58047.0	47026.0	-5646057.0
16	15	9	28	453	177.0	-123007.0	45113.0	-5645229.0
16	15	9	28	453	178.0	-258797.0	44029.0	-5645107.0
16	15	9	28	453	179.0	-513630.0	42513.0	-5646392.0
16	15	9	28	454	180.0	-691359.0	41686.0	-5645930.0
16	15	9	28	454	181.0	-521209.0	40556.0	-5645183.0
16	15	9	28	484	182.0	-32037.0	38933.0	-5645205.0
16	15	9	28	485	183.0	362158.0	38212.0	-5646566.0
16	15	9	28	485	184.0	400451.0	39058.0	-5646054.0
16	15	9	28	485	185.0	298102.0	38140.0	-5645312.0
16	15	9	28	485	186.0	230654.0	36289.0	-5644875.0
16	15	9	28	486	187.0	160031.0	34844.0	-5646266.0
16	15	9	28	486	188.0	113678.0	33356.0	-5646141.0
16	15	9	28	486	189.0	69832.0	31857.0	-5645379.0
16	15	9	28	486	190.0	15134.0	30070.0	-5645011.0
16	15	9	28	577	191.0	-18695.0	28298.0	-5645834.0
16	15	9	28	578	192.0	-44577.0	26414.0	-5645347.0
16	15	9	28	578	193.0	-78539.0	24741.0	-5644794.0
16	15	9	28	578	194.0	-102163.0	22869.0	-5645801.0
16	15	9	28	579	195.0	-113707.0	21312.0	-5646037.0
16	15	9	28	579	196.0	-128272.0	20048.0	-5645120.0
16	15	9	28	579	198.0	-193779.0	15796.0	-5645689.0
16	15	9	28	580	199.0	-227236.0	12205.0	-5646036.0
16	15	9	28	580	200.0	-264221.0	9673.0	-5645166.0
16	15	9	28	580	201.0	-285880.0	7749.0	-5644761.0
16	15	9	28	580	202.0	-245804.0	6209.0	-5646031.0
16	15	9	28	580	203.0	-154105.0	4711.0	-5646146.0
16	15	9	28	581	204.0	-64362.0	3118.0	-5645286.0
16	15	9	28	581	205.0	-30235.0	2443.0	-5645026.0
16	15	9	28	581	206.0	-44082.0	3273.0	-5646291.0
16	15	9	28	582	207.0	-66794.0	3114.0	-5646127.0
16	15	9	28	582	208.0	-90171.0	1533.0	-5645260.0
16	15	9	28	582	209.0	-105846.0	1125.0	-5645107.0
16	15	9	28	582	210.0	-102956.0	-884.0	-5646404.0
16	15	9	28	583	211.0	-91914.0	-2176.0	-5646116.0
16	15	9	28	583	212.0	-81115.0	-2724.0	-5645294.0
16	15	9	28	583	213.0	-59164.0	-3498.0	-5645045.0
16	15	9	28	583	214.0	-28431.0	-4796.0	-5646404.0
16	15	9	28	583	215.0	6176.0	-5577.0	-5646241.0
16	15	9	28	584	216.0	43841.0	-6335.0	-5645426.0
16	15	9	28	584	217.0	76561.0	-7257.0	-5645041.0
16	15	9	28	584	218.0	108844.0	-8027.0	-5646336.0
16	15	9	28	584	220.0	169315.0	-10106.0	-5645459.0
16	15	9	28	584	221.0	193103.0	-12157.0	-5645741.0
16	15	9	28	585	222.0	204896.0	-14794.0	-5646852.0
16	15	9	28	585	223.0	216851.0	-15744.0	-5646289.0
16	15	9	28	585	224.0	227976.0	-16148.0	-5645487.0
16	15	9	28	585	225.0	230143.0	-17051.0	-5645317.0
16	15	9	28	586	226.0	220256.0	-17483.0	-5646858.0
16	15	9	28	586	227.0	203400.0	-17963.0	-5646524.0
16	15	9	28	586	228.0	194176.0	-17304.0	-5645734.0
16	15	9	28	587	229.0	179133.0	-16304.0	-5645154.0
16	15	9	28	587	230.0	167161.0	-16709.0	-5646418.0
16	15	9	28	587	231.0	155228.0	-16680.0	-5646517.0
16	15	9	28	587	232.0	141438.0	-16994.0	-5645751.0
16	15	9	28	588	233.0	127958.0	-17531.0	-5645579.0
16	15	9	28	588	234.0	118526.0	-17536.0	-5646914.0
16	15	9	28	588	235.0	102570.0	-17827.0	-5646474.0
16	15	9	28	589	236.0	84944.0	-18229.0	-5645704.0
16	15	9	28	589	237.0	76848.0	-18324.0	-5645750.0
16	15	9	28	589	238.0	67729.0	-18386.0	-5647264.0
16	15	9	28	590	239.0	59193.0	-18717.0	-5646770.0
16	15	9	28	590	240.0	59619.0	-19226.0	-5646012.0
16	15	9	28	590	241.0	59398.0	-19415.0	-5645693.0
16	15	9	28	590	243.0	68878.0	-20191.0	-5645962.0
16	15	9	28	682	244.0	73632.0	-22431.0	-5645315.0
16	15	9	28	682	245.0	81124.0	-22816.0	-5646254.0
16	15	9	28	683	246.0	92059.0	-23126.0	-5646917.0
16	15	9	28	683	247.0	95008.0	-23316.0	-5646076.0
16	15	9	28	684	248.0	91817.0	-22471.0	-5645460.0
16	15	9	28	684	249.0	73069.0	-22322.0	-5646328.0
16	15	9	28	684	250.0	59721.0	-21286.0	-5646731.0
16	15	9	28	684	251.0	49218.0	-19121.0	-5645899.0
16	15	9	28	685	252.0	42283.0	-18611.0	-5645599.0
16	15	9	28	685	253.0	25846.0	-17905.0	-5647021.0
16	15	9	28	685	254.0	11844.0	-17266.0	-5647028.0
16	15	9	28	686	255.0	743.0	-17141.0	-5646137.0
16	15	9	28	686	0.0	-19.0	-16954.0	-5645641.0
16	15	9	28	686	1.0	-1061.0	-16639.0	-5646747.0
16	15	9	28	686	2.0	-214.0	-16552.0	-5646923.0
16	15	9	28	687	3.0	3086.0	-16232.0	-5646042.0
16	15	9	28	687	4.0	12222.0	-16112.0	-5645467.0
16	15	9	28	687	5.0	31439.0	-15614.0	-5646550.0
16	15	9	28	688	6.0	58751.0	-14831.0	-5646815.0
16	15	9	28	688	7.0	80543.0	-14209.0	-5645999.0
16	15	9	28	688	9.0	134239.0	-13087.0	-5646634.0
16	15	9	28	689	10.0	161184.0	-14258.0	-5646974.0
16	15	9	28	689	11.0	177455.0	-15665.0	-5646196.0
16	15	9	28	689	12.0	184122.0	-15407.0	-5645747.0
16	15	9	28	689	13.0	186532.0	-15080.0	-5647159.0
16	15	9	28	690	14.0	180692.0	-14691.0	-5647212.0
16	15	9	28	690	15.0	175653.0	-14119.0	-5646399.0
16	15	9	28	690	16.0	175042.0	-13742.0	-5645863.0
16	15	9	28	690	17.0	174023.0	-10939.0	-5647266.0
16	15	9	28	691	18.0	173180.0	-9055.0	-5647483.0
16	15	9	28	693	19.0	169219.0	-8562.0	-5646677.0
16	15	9	28	693	20.0	162036.0	-8169.0	-5645910.0
16	15	9	28	693	21.0	155588.0	-7567.0	-5646824.0
16	15	9	28	694	22.0	154077.0	-7470.0	-5647291.0
16	15	9	28	694	23.0	149458.0	-7013.0	-5646577.0
16	15	9	28	695	24.0	138113.0	-5784.0	-5645917.0
16	15	9	28	695	25.0	136937.0	-5593.0	-5647089.0
16	15	9	28	695	26.0	127554.0	-5239.0	-5647322.0
16	15	9	28	696	27.0	113351.0	-4609.0	-5646584.0
16	15	9	28	696	28.0	99275.0	-3587.0	-5646039.0
16	15	9	28	696	29.0	87693.0	-3116.0	-5647379.0
16	15	9	28	697	32.0	49358.0	-2867.0	-5645926.0
16	15	9	28	697	33.0	24542.0	-4653.0	-5647039.0
16	15	9	28	697	34.0	-4336.0	-5287.0	-5647225.0
16	15	9	28	698	35.0	-39271.0	-5502.0	-5646442.0
16	15	9	28	698	36.0	-66244.0	-5460.0	-5645594.0
16	15	9	28	698	37.0	-87974.0	-5124.0	-5646248.0
16	15	9	28	760	38.0	-101452.0	-5116.0	-5646921.0
16	15	9	28	761	39.0	-111337.0	-3985.0	-5646232.0
16	15	9	28	761	40.0	-120822.0	-1647.0	-5645466.0
16	15	9	28	761	41.0	-134935.0	-1043.0	-5646127.0
16	15	9	28	762	42.0	-139211.0	-802.0	-5646284.0
16	15	9	28	762	43.0	-139207.0	-709.0	-5645635.0
16	15	9	28	762	44.0	-138564.0	-985.0	-5646445.0
16	15	9	28	763	45.0	-121499.0	-828.0	-5647236.0
16	15	9	28	763	46.0	-102321.0	-966.0	-5646418.0
16	15	9	28	763	47.0	-88434.0	-869.0	-5645691.0
16	15	9	28	764	48.0	-69830.0	-837.0	-5646250.0
16	15	9	28	764	49.0	-46977.0	-920.0	-5647037.0
16	15	9	28	764	50.0	-23772.0	-1207.0	-5646237.0
16	15	9	28	764	51.0	-873.0	-1213.0	-5645449.0
16	15	9	28	765	52.0	21446.0	-1057.0	-5645882.0
16	15	9	28	765	54.0	55548.0	-1023.0	-5646275.0
16	15	9	28	765	55.0	80807.0	-2616.0	-5645469.0
16	15	9	28	765	56.0	104830.0	-4224.0	-5645757.0
16	15	9	28	766	57.0	132389.0	-4546.0	-5646932.0
16	15	9	28	766	58.0	169231.0	-4272.0	-5646351.0
16	15	9	28	766	59.0	222022.0	-4319.0	-5645576.0
16	15	9	28	767	60.0	269301.0	-4089.0	-5646063.0
16	15	9	28	767	61.0	301539.0	-1675.0	-5647192.0
16	15	9	28	767	62.0	331033.0	-587.0	-5646562.0
16	15	9	28	768	63.0	352743.0	-647.0	-5645766.0
16	15	9	28	768	64.0	368433.0	-466.0	-5646291.0
16	15	9	28	768	65.0	371541.0	-829.0	-5647119.0
16	15	9	28	768	66.0	349769.0	-1055.0	-5646449.0
16	15	9	28	769	67.0	308783.0	-1267.0	-5645554.0
16	15	9	28	769	68.0	283709.0	-1207.0	-5645876.0
16	15	9	28	769	69.0	152763.0	-918.0	-5646933.0
16	15	9	28	769	70.0	-321017.0	-536.0	-5646340.0
16	15	9	28	770	76.0	-161298.0	-1216.0	-5646279.0
16	15	9	28	770	77.0	16783.0	-1711.0	-5647127.0
16	15	9	28	770	78.0	43085.0	-3920.0	-5646487.0
16	15	9	28	771	79.0	117144.0	-4579.0	-5645642.0
16	15	9	28	771	80.0	266121.0	-4611.0	-5646091.0
16	15	9	28	771	81.0	364748.0	-5102.0	-5647021.0
16	15	9	28	772	82.0	331600.0	-5093.0	-5646385.0
16	15	9	28	849	83.0	161396.0	-4843.0	-5645472.0
16	15	9	28	849	84.0	7038.0	-4676.0	-5645795.0
16	15	9	28	849	85.0	-17329.0	-2541.0	-5646925.0
16	15	9	28	850	86.0	33435.0	-2210.0	-5646379.0
16	15	9	28	850	87.0	118708.0	-2002.0	-5645552.0
16	15	9	28	851	88.0	217506.0	-1461.0	-5645963.0
16	15	9	28	851	89.0	265293.0	-1128.0	-5647276.0
16	15	9	28	851	90.0	264445.0	-885.0	-5646738.0
16	15	9	28	852	91.0	265758.0	-697.0	-5645950.0
16	15	9	28	852	92.0	254755.0	-817.0	-5646479.0
16	15	9	28	852	93.0	191885.0	-1019.0	-5647640.0
16	15	9	28	853	94.0	102171.0	-530.0	-5646974.0
16	15	9	28	853	95.0	51446.0	-430.0	-5646174.0
16	15	9	28	853	96.0	47256.0	-367.0	-5646772.0
16	15	9	28	854	97.0	50405.0	-571.0	-5647795.0
16	15	9	28	854	99.0	-42562.0	56.0	-5646232.0
16	15	9	28	854	100.0	-119502.0	-1822.0	-5645828.0
16	15	9	28	854	101.0	-191074.0	-3429.0	-5647169.0
16	15	9	28	855	102.0	-242514.0	-3712.0	-5646912.0
16	15	9	28	855	103.0	-281392.0	-3332.0	-5646114.0
16	15	9	28	855	104.0	-298988.0	-3354.0	-5645727.0
16	15	9	28	856	105.0	-298112.0	-3806.0	-5647094.0
16	15	9	28	856	106.0	-284607.0	-3771.0	-5646836.0
16	15	9	28	856	107.0	-266330.0	-1057.0	-5646076.0
16	15	9	28	856	108.0	-260589.0	-519.0	-5645984.0
16	15	9	28	856	109.0	-272184.0	-264.0	-5646815.0
16	15	9	28	857	110.0	-292516.0	43.0	-5646212.0
16	15	9	28	857	111.0	-308963.0	231.0	-5645820.0
16	15	9	28	857	112.0	-318919.0	558.0	-5647117.0
16	15	9	28	857	113.0	-344632.0	394.0	-5647019.0
16	15	9	28	858	114.0	-357805.0	853.0	-5646194.0
16	15	9	28	858	115.0	-362578.0	1534.0	-5645796.0
16	15	9	28	858	116.0	-358355.0	1783.0	-5647089.0
16	15	9	28	859	117.0	-334497.0	1531.0	-5647016.0
16	15	9	28	859	118.0	-297659.0	948.0	-5646153.0
16	15	9	28	859	119.0	-263792.0	1478.0	-5645667.0
16	15	9	28	860	121.0	-176698.0	1920.0	-5647264.0
16	15	9	28	860	122.0	-124762.0	931.0	-5646402.0
16	15	9	28	860	123.0	-64851.0	-1451.0	-5646127.0
16	15	9	28	860	124.0	4836.0	-1458.0	-5647349.0
16	15	9	28	861	125.0	63743.0	-1559.0	-5647151.0
16	15	9	28	861	126.0	96519.0	-1536.0	-5646282.0
16	15	9	28	862	127.0	122898.0	-1475.0	-5645964.0
16	15	9	28	939	128.0	145399.0	-1805.0	-5647281.0
16	15	9	28	940	129.0	157294.0	-1239.0	-5647239.0
16	15	9	28	940	130.0	163614.0	1119.0	-5646370.0
16	15	9	28	940	131.0	174953.0	1593.0	-5645881.0
16	15	9	28	941	132.0	184650.0	2051.0	-5646963.0
16	15	9	28	941	133.0	176035.0	2538.0	-5647122.0
16	15	9	28	941	134.0	168469.0	2420.0	-5646241.0
16	15	9	28	942	135.0	159579.0	2716.0	-5645801.0
16	15	9	28	942	136.0	149953.0	3322.0	-5647003.0
16	15	9	28	942	137.0	131389.0	3518.0	-5647058.0
16	15	9	28	943	138.0	108389.0	3283.0	-5646253.0
16	15	9	28	943	139.0	97838.0	3754.0	-5646052.0
16	15	9	28	943	140.0	96274.0	4768.0	-5647552.0
16	15	9	28	944	141.0	97110.0	4716.0	-5647428.0
16	15	9	28	944	142.0	102298.0	4946.0	-5646609.0
16	15	9	28	944	144.0	129802.0	5953.0	-5647864.0
16	15	9	28	945	145.0	135582.0	4833.0	-5647590.0
16	15	9	28	945	146.0	128128.0	4448.0	-5646752.0
16	15	9	28	945	147.0	122599.0	5061.0	-5646105.0
16	15	9	28	945	148.0	122669.0	6036.0	-5647341.0
16	15	9	28	946	149.0	122379.0	7091.0	-5647629.0
16	15	9	28	946	150.0	120179.0	8163.0	-5646864.0
16	15	9	28	946	151.0	115905.0	9866.0	-5646226.0
16	15	9	28	946	152.0	108752.0	13144.0	-5647459.0
16	15	9	28	947	153.0	99959.0	15178.0	-5647721.0
16	15	9	28	947	154.0	86537.0	16287.0	-5646980.0
16	15	9	28	947	155.0	74731.0	17668.0	-5646642.0
16	15	9	28	947	156.0	60639.0	19854.0	-5647911.0
16	15	9	28	948	157.0	42980.0	21450.0	-5647644.0
16	15	9	28	948	158.0	25989.0	22649.0	-5646879.0
16	15	9	28	948	159.0	10615.0	24468.0	-5646487.0
16	15	9	28	949	160.0	-8385.0	26202.0	-5647841.0
16	15	9	28	949	161.0	-24524.0	27569.0	-5647597.0
16	15	9	28	949	162.0	-25648.0	29756.0	-5646822.0
16	15	9	28	949	163.0	-30371.0	31695.0	-5646384.0
16	15	9	28	950	164.0	-38865.0	34291.0	-5647743.0
16	15	9	28	950	166.0	-22474.0	37848.0	-5646700.0
16	15	9	28	950	167.0	-38677.0	38618.0	-5646223.0
16	15	9	28	951	168.0	-53877.0	38285.0	-5647572.0
16	15	9	28	951	169.0	-57426.0	39869.0	-5647398.0
16	15	9	28	951	170.0	-57398.0	41615.0	-5646679.0
16	15	9	28	952	171.0	-58334.0	42866.0	-5646623.0
16	15	9	28	952	172.0	-57463.0	43868.0	-5647890.0
16	15	9	29	18	173.0	-48202.0	44941.0	-5647331.0
16	15	9	29	18	174.0	-30811.0	46617.0	-5646622.0
16	15	9	29	19	175.0	-10738.0	49806.0	-5646946.0
16	15	9	29	19	176.0	7098.0	51038.0	-5648014.0
16	15	9	29	19	177.0	25599.0	51671.0	-5647299.0
16	15	9	29	20	178.0	46034.0	52370.0	-5646547.0
16	15	9	29	20	179.0	64294.0	52970.0	-5646523.0
16	15	9	29	20	180.0	84239.0	53393.0	-5647925.0
16	15	9	29	21	181.0	97421.0	53358.0	-5647422.0
16	15	9	29	21	182.0	99581.0	53580.0	-5646639.0
16	15	9	29	21	183.0	91524.0	53439.0	-5646769.0
16	15	9	29	22	184.0	85791.0	52604.0	-5647994.0
16	15	9	29	22	185.0	71726.0	51616.0	-5647383.0
16	15	9	29	22	186.0	44970.0	50526.0	-5646610.0
16	15	9	29	22	187.0	7415.0	49759.0	-5647084.0
16	15	9	29	23	189.0	-74152.0	47718.0	-5647186.0
16	15	9	29	23	190.0	-134655.0	44312.0	-5646407.0
16	15	9	29	23	191.0	-318144.0	41743.0	-5646810.0
16	15	9	29	23	192.0	-610684.0	40203.0	-5647819.0
16	15	9	29	24	193.0	-713782.0	38664.0	-5647153.0
16	15	9	29	24	194.0	-378984.0	36919.0	-5646366.0
16	15	9	29	24	195.0	143736.0	35204.0	-5646534.0
16	15	9	29	25	196.0	385638.0	33854.0	-5647672.0
16	15	9	29	25	197.0	305059.0	34723.0	-5647142.0
16	15	9	29	101	198.0	204039.0	34047.0	-5646301.0
16	15	9	29	101	199.0	128059.0	32093.0	-5646538.0
16	15	9	29	102	200.0	27028.0	30296.0	-5647487.0
16	15	9	29	102	201.0	-14444.0	28593.0	-5646910.0
16	15	9	29	102	202.0	-27063.0	27578.0	-5646161.0
16	15	9	29	103	203.0	-84341.0	25783.0	-5647142.0
16	15	9	29	103	204.0	-152831.0	24059.0	-5647637.0
16	15	9	29	103	205.0	-225259.0	22370.0	-5646904.0
16	15	9	29	103	206.0	-309241.0	20640.0	-5646311.0
16	15	9	29	104	207.0	-358086.0	18901.0	-5647716.0
16	15	9	29	104	208.0	-332432.0	17196.0	-5647902.0
16	15	9	29	104	209.0	-251508.0	15528.0	-5647186.0
16	15	9	29	104	211.0	-50354.0	13154.0	-5646969.0
16	15	9	29	104	212.0	8917.0	10380.0	-5647814.0
16	15	9	29	105	213.0	47347.0	7098.0	-5647174.0
16	15	9	29	105	214.0	63496.0	6663.0	-5646334.0
16	15	9	29	105	215.0	52844.0	6469.0	-5646837.0
16	15	9	29	105	234.0	248543.0	-13096.0	-5646061.0
16	15	9	29	106	235.0	250264.0	-15896.0	-5647334.0
16	15	9	29	106	236.0	257861.0	-17496.0	-5646837.0
16	15	9	29	106	237.0	262074.0	-17980.0	-5646079.0
16	15	9	29	106	238.0	262292.0	-18884.0	-5646579.0
16	15	9	29	107	239.0	254899.0	-19494.0	-5647376.0
16	15	9	29	180	240.0	235886.0	-20022.0	-5646692.0
16	15	9	29	180	241.0	205412.0	-19819.0	-5645891.0
16	15	9	29	181	242.0	174369.0	-18302.0	-5646332.0
16	15	9	29	181	243.0	140114.0	-18095.0	-5647329.0
16	15	9	29	181	244.0	113666.0	-18612.0	-5646700.0
16	15	9	29	182	245.0	97068.0	-19182.0	-5645894.0
16	15	9	29	182	246.0	77870.0	-19787.0	-5646625.0
16	15	9	29	182	247.0	64114.0	-19402.0	-5647354.0
16	15	9	29	182	248.0	51064.0	-18652.0	-5646675.0
16	15	9	29	183	249.0	48736.0	-19180.0	-5645845.0
16	15	9	29	183	250.0	59309.0	-19663.0	-5646271.0
16	15	9	29	183	251.0	70396.0	-19869.0	-5647197.0
16	15	9	29	184	252.0	79901.0	-20076.0	-5646604.0
16	15	9	29	184	253.0	86040.0	-20397.0	-5645813.0
16	15	9	29	184	254.0	95838.0	-20841.0	-5646698.0
16	15	9	29	184	0.0	100607.0	-20545.0	-5646641.0
16	15	9	29	185	1.0	95440.0	-22083.0	-5645841.0
16	15	9	29	185	2.0	96741.0	-23936.0	-5646725.0
16	15	9	29	185	3.0	100226.0	-24136.0	-5647359.0
16	15	9	29	186	4.0	97838.0	-24372.0	-5646667.0
16	15	9	29	186	5.0	88665.0	-24529.0	-5645822.0
16	15	9	29	186	6.0	83009.0	-24364.0	-5646256.0
16	15	9	29	186	7.0	81604.0	-23905.0	-5647217.0
16	15	9	29	187	8.0	86759.0	-22822.0	-5646582.0
16	15	9	29	187	9.0	82626.0	-20392.0	-5645822.0
16	15	9	29	187	10.0	71019.0	-19986.0	-5646262.0
16	15	9	29	188	11.0	60810.0	-19500.0	-5646424.0
16	15	9	29	188	12.0	53866.0	-18877.0	-5645747.0
16	15	9	29	188	13.0	39271.0	-18471.0	-5646390.0
16	15	9	29	188	14.0	20752.0	-18651.0	-5647574.0
16	15	9	29	189	15.0	9877.0	-18201.0	-5646842.0
16	15	9	29	189	16.0	15260.0	-18029.0	-5646116.0
16	15	9	29	189	17.0	22717.0	-17084.0	-5646322.0
16	15	9	29	190	18.0	31874.0	-16726.0	-5647492.0
16	15	9	29	190	19.0	43853.0	-16437.0	-5646812.0
16	15	9	29	190	20.0	60457.0	-15655.0	-5646007.0
16	15	9	29	190	21.0	79553.0	-14819.0	-5645870.0
16	15	9	29	191	23.0	110819.0	-14467.0	-5646694.0
16	15	9	29	191	24.0	126833.0	-16255.0	-5645883.0
16	15	9	29	192	25.0	135583.0	-16619.0	-5645616.0
16	15	9	29	192	26.0	139408.0	-16067.0	-5646601.0
16	15	9	29	192	27.0	135431.0	-15946.0	-5646218.0
16	15	9	29	192	28.0	133062.0	-15588.0	-5645387.0
16	15	9	29	262	29.0	124362.0	-14912.0	-5645891.0
16	15	9	29	262	30.0	107690.0	-13567.0	-5647002.0
16	15	9	29	263	31.0	93363.0	-10771.0	-5646355.0
16	15	9	29	263	32.0	87382.0	-9549.0	-5645505.0
16	15	9	29	263	33.0	71651.0	-8982.0	-5645876.0
16	15	9	29	263	34.0	45166.0	-8257.0	-5646733.0
16	15	9	29	264	35.0	26349.0	-7947.0	-5646051.0
16	15	9	29	264	36.0	14163.0	-7341.0	-5645186.0
16	15	9	29	264	37.0	353.0	-6594.0	-5645759.0
16	15	9	29	265	38.0	-20209.0	-6057.0	-5646565.0
16	15	9	29	265	39.0	-48429.0	-6162.0	-5645900.0
16	15	9	29	265	40.0	-73007.0	-5764.0	-5645061.0
16	15	9	29	265	41.0	-95522.0	-5986.0	-5645662.0
16	15	9	29	266	42.0	-107642.0	-5687.0	-5646549.0
16	15	9	29	266	43.0	-121542.0	-5091.0	-5645922.0
16	15	9	29	266	45.0	-137944.0	-3601.0	-5645664.0
16	15	9	29	267	46.0	-148663.0	-4314.0	-5646512.0
16	15	9	29	267	47.0	-162657.0	-6434.0	-5645882.0
16	15	9	29	267	48.0	-171491.0	-6995.0	-5645263.0
16	15	9	29	267	49.0	-177511.0	-6817.0	-5646504.0
16	15	9	29	268	50.0	-187649.0	-6612.0	-5646537.0
16	15	9	29	268	51.0	-185017.0	-6401.0	-5645756.0
16	15	9	29	268	52.0	-172520.0	-5923.0	-5644947.0
16	15	9	29	268	53.0	-159468.0	-3547.0	-5645382.0
16	15	9	29	269	54.0	-140581.0	-1661.0	-5645522.0
16	15	9	29	269	55.0	-117306.0	-1303.0	-5644799.0
16	15	9	29	269	56.0	-83238.0	-1164.0	-5644886.0
16	15	9	29	270	57.0	-47677.0	-1307.0	-5646131.0
16	15	9	29	270	58.0	-2063.0	-1322.0	-5645524.0
16	15	9	29	270	59.0	41274.0	-1194.0	-5644843.0
16	15	9	29	270	60.0	74443.0	-1327.0	-5645529.0
16	15	9	29	271	61.0	94871.0	-1318.0	-5646191.0
16	15	9	29	271	62.0	112789.0	-1490.0	-5645379.0
16	15	9	29	272	63.0	139314.0	-1267.0	-5644689.0
16	15	9	29	272	64.0	175764.0	-1279.0	-5645287.0
16	15	9	29	272	65.0	216694.0	-813.0	-5646091.0
16	15	9	29	273	68.0	264523.0	-1751.0	-5645094.0
16	15	9	29	273	69.0	267129.0	-4079.0	-5646019.0
16	15	9	29	273	70.0	273987.0	-4872.0	-5645306.0
16	15	9	29	274	71.0	278063.0	-4841.0	-5644531.0
16	15	9	29	274	72.0	274781.0	-4605.0	-5644977.0
16	15	9	29	274	73.0	249678.0	-4623.0	-5646083.0
16	15	9	29	346	74.0	220535.0	-4501.0	-5645434.0
16	15	9	29	346	75.0	132319.0	-3622.0	-5644674.0
16	15	9	29	346	76.0	-193452.0	-1471.0	-5645281.0
16	15	9	29	347	77.0	-714889.0	-1176.0	-5645976.0
16	15	9	29	347	78.0	-1154882.0	-1350.0	-5645208.0
16	15	9	29	347	79.0	-1277208.0	-1295.0	-5644440.0
16	15	9	29	348	80.0	-1032039.0	-1024.0	-5645321.0
16	15	9	29	348	81.0	-597871.0	-1074.0	-5646041.0
16	15	9	29	348	82.0	-172496.0	-1252.0	-5645328.0
16	15	9	29	348	83.0	82185.0	-1117.0	-5644463.0
16	15	9	29	349	84.0	145626.0	-1154.0	-5644824.0
16	15	9	29	349	85.0	208153.0	-855.0	-5645991.0
16	15	9	29	349	86.0	382587.0	-1004.0	-5645459.0
16	15	9	29	350	87.0	477379.0	-1054.0	-5644651.0
16	15	9	29	350	88.0	379524.0	-1094.0	-5645286.0
16	15	9	29	350	90.0	101512.0	-1624.0	-5645499.0
16	15	9	29	350	91.0	47438.0	-3401.0	-5644707.0
16	15	9	29	351	92.0	36431.0	-5147.0	-5645690.0
16	15	9	29	351	93.0	56783.0	-5207.0	-5646242.0
16	15	9	29	351	94.0	140200.0	-5159.0	-5645532.0
16	15	9	29	352	95.0	227018.0	-5276.0	-5644707.0
16	15	9	29	352	96.0	286919.0	-4994.0	-5645459.0
16	15	9	29	352	97.0	323778.0	-4586.0	-5646237.0
16	15	9	29	353	98.0	288213.0	-2864.0	-5645572.0
16	15	9	29	353	99.0	160044.0	-1659.0	-5644676.0
16	15	9	29	353	100.0	8799.0	-1194.0	-5645301.0
16	15	9	29	353	101.0	-78717.0	-1707.0	-5646217.0
16	15	9	29	354	102.0	-81735.0	-1429.0	-5645564.0
16	15	9	29	354	103.0	-62142.0	-724.0	-5644731.0
16	15	9	29	354	104.0	-83077.0	-618.0	-5645132.0
16	15	9	29	355	105.0	-139184.0	-1176.0	-5646048.0
16	15	9	29	355	106.0	-208867.0	-1812.0	-5645430.0
16	15	9	29	355	107.0	-282663.0	-1464.0	-5644699.0
16	15	9	29	356	108.0	-348972.0	-1856.0	-5645444.0
16	15	9	29	356	109.0	-388772.0	-1966.0	-5645647.0
16	15	9	29	356	110.0	-399287.0	-1672.0	-5644933.0
16	15	9	29	356	112.0	-353959.0	-1030.0	-5646382.0
16	15	9	29	357	113.0	-325727.0	-1654.0	-5645657.0
16	15	9	29	357	114.0	-300517.0	-3969.0	-5644888.0
16	15	9	29	357	115.0	-277678.0	-4192.0	-5644866.0
16	15	9	29	358	116.0	-271889.0	-4338.0	-5646174.0
16	15	9	29	358	117.0	-281613.0	-4333.0	-5645699.0
16	15	9	29	444	118.0	-296179.0	-4661.0	-5644881.0
16	15	9	29	445	119.0	-312642.0	-4865.0	-5645083.0
16	15	9	29	445	120.0	-330777.0	-4382.0	-5646371.0
16	15	9	29	445	121.0	-337406.0	-1498.0	-5645821.0
16	15	9	29	446	122.0	-340075.0	-1051.0	-5644985.0
16	15	9	29	446	123.0	-326746.0	-1208.0	-5645295.0
16	15	9	29	446	124.0	-293811.0	-982.0	-5646402.0
16	15	9	29	446	125.0	-256919.0	-332.0	-5645802.0
16	15	9	29	447	126.0	-211986.0	335.0	-5645012.0
16	15	9	29	447	127.0	-150189.0	473.0	-5645724.0
16	15	9	29	447	128.0	-99127.0	331.0	-5646477.0
16	15	9	29	448	129.0	-61545.0	-384.0	-5645804.0
16	15	9	29	448	130.0	-26434.0	-809.0	-5644966.0
16	15	9	29	448	131.0	12389.0	1.0	-5645439.0
16	15	9	29	448	132.0	63753.0	521.0	-5646460.0
16	15	9	29	449	133.0	127965.0	262.0	-5645866.0
16	15	9	29	449	135.0	217728.0	565.0	-5645159.0
16	15	9	29	449	136.0	229134.0	-1041.0	-5646249.0
16	15	9	29	450	137.0	225898.0	-2974.0	-5645728.0
16	15	9	29	450	138.0	224943.0	-3392.0	-5644924.0
16	15	9	29	450	139.0	228576.0	-3407.0	-5645823.0
16	15	9	29	450	140.0	235571.0	-3222.0	-5646486.0
16	15	9	29	451	141.0	238630.0	-3039.0	-5645789.0
16	15	9	29	451	142.0	225970.0	-2197.0	-5644966.0
16	15	9	29	452	143.0	203614.0	232.0	-5645696.0
16	15	9	29	452	144.0	172603.0	1562.0	-5646464.0
16	15	9	29	452	145.0	154341.0	1923.0	-5645769.0
16	15	9	29	452	146.0	146126.0	2186.0	-5644952.0
16	15	9	29	453	147.0	142169.0	2291.0	-5645601.0
16	15	9	29	453	148.0	133571.0	3142.0	-5646371.0
16	15	9	29	453	149.0	127494.0	4341.0	-5645632.0
16	15	9	29	453	150.0	123110.0	4906.0	-5644812.0
16	15	9	29	454	151.0	113761.0	4944.0	-5644955.0
16	15	9	29	454	152.0	101329.0	5813.0	-5645409.0
16	15	9	29	544	153.0	93039.0	6831.0	-5644711.0
16	15	9	29	544	154.0	91198.0	7513.0	-5644692.0
16	15	9	29	545	155.0	92653.0	8495.0	-5646027.0
16	15	9	29	545	157.0	92266.0	10566.0	-5644724.0
16	15	9	29	545	158.0	71738.0	10983.0	-5645313.0
16	15	9	29	546	159.0	44361.0	9711.0	-5646327.0
16	15	9	29	546	160.0	18786.0	10910.0	-5645610.0
16	15	9	29	546	161.0	-2052.0	12113.0	-5644853.0
16	15	9	29	547	162.0	-18389.0	14027.0	-5645302.0
16	15	9	29	547	163.0	-28145.0	17630.0	-5646397.0
16	15	9	29	547	164.0	-32432.0	19886.0	-5645733.0
16	15	9	29	547	165.0	-32237.0	22254.0	-5644884.0
16	15	9	29	548	166.0	-27484.0	23793.0	-5645050.0
16	15	9	29	548	167.0	-22179.0	25710.0	-5646256.0
16	15	9	29	548	168.0	-32184.0	27134.0	-5645721.0
16	15	9	29	548	180.0	55339.0	45791.0	-5645394.0
16	15	9	29	549	181.0	69146.0	44995.0	-5644555.0
16	15	9	29	549	182.0	86918.0	44701.0	-5644851.0
16	15	9	29	549	183.0	109264.0	45643.0	-5645803.0
16	15	9	29	550	184.0	125181.0	46397.0	-5645219.0
16	15	9	29	550	185.0	130038.0	46768.0	-5644347.0
16	15	9	29	550	186.0	139105.0	47115.0	-5644657.0
16	15	9	29	550	187.0	147526.0	47517.0	-5645724.0
16	15	9	29	551	188.0	140141.0	49313.0	-5645151.0
16	15	9	29	551	189.0	125697.0	49974.0	-5644447.0
16	15	9	29	551	190.0	96832.0	49514.0	-5645144.0
16	15	9	29	552	191.0	52660.0	48944.0	-5645141.0
16	15	9	29	552	192.0	-730.0	48334.0	-5644411.0
16	15	9	29	552	193.0	-61616.0	47852.0	-5644619.0
16	15	9	29	553	194.0	-123822.0	47601.0	-5645794.0
16	15	9	29	553	195.0	-189156.0	47238.0	-5645073.0
16	15	9	29	553	196.0	-340594.0	46353.0	-5644227.0
16	15	9	29	553	197.0	-652176.0	45942.0	-5644151.0
16	15	9	29	554	198.0	-844114.0	44281.0	-5645443.0
16	15	9	29	554	199.0	-539163.0	42280.0	-5644944.0
16	15	9	29	554	200.0	60544.0	40675.0	-5644239.0
16	15	9	29	555	202.0	336834.0	36965.0	-5645447.0
16	15	9	29	555	203.0	235065.0	34134.0	-5644932.0
16	15	9	29	555	204.0	170803.0	30213.0	-5644137.0
16	15	9	29	556	205.0	73758.0	28108.0	-5644340.0
16	15	9	29	556	206.0	27608.0	26374.0	-5645399.0
16	15	9	29	556	207.0	16709.0	24363.0	-5644771.0
16	15	9	29	557	208.0	-22226.0	22434.0	-5643981.0
16	15	9	29	639	209.0	-73093.0	20386.0	-5644438.0
16	15	9	29	639	210.0	-129942.0	19388.0	-5645219.0
16	15	9	29	640	211.0	-189382.0	20661.0	-5644485.0
16	15	9	29	640	212.0	-238015.0	20168.0	-5643627.0
16	15	9	29	640	213.0	-272084.0	18529.0	-5643993.0
16	15	9	29	640	214.0	-253976.0	17227.0	-5644871.0
16	15	9	29	641	215.0	-164817.0	15698.0	-5644224.0
16	15	9	29	641	216.0	-38041.0	13763.0	-5643424.0
16	15	9	29	641	217.0	54573.0	12701.0	-5644122.0
16	15	9	29	641	218.0	98226.0	11222.0	-5644827.0
16	15	9	29	642	219.0	116100.0	9366.0	-5644145.0
16	15	9	29	642	220.0	116809.0	8116.0	-5643482.0
16	15	9	29	642	221.0	110261.0	7096.0	-5644691.0
16	15	9	29	642	222.0	106492.0	6094.0	-5644942.0
16	15	9	29	643	223.0	94360.0	4841.0	-5644176.0
16	15	9	29	643	225.0	53843.0	2031.0	-5644352.0
16	15	9	29	643	226.0	43329.0	-1203.0	-5644789.0
16	15	9	29	644	227.0	40906.0	-3629.0	-5644025.0
16	15	9	29	644	228.0	36546.0	-4919.0	-5643189.0
16	15	9	29	644	229.0	28203.0	-6261.0	-5643961.0
16	15	9	29	644	230.0	29980.0	-7402.0	-5644549.0
16	15	9	29	645	231.0	46419.0	-7956.0	-5643811.0
16	15	9	29	645	232.0	67026.0	-8421.0	-5643053.0
16	15	9	29	645	233.0	91511.0	-6832.0	-5643755.0
16	15	9	29	646	234.0	119171.0	-6773.0	-5643919.0
16	15	9	29	646	235.0	141948.0	-7456.0	-5643236.0
16	15	9	29	646	236.0	171039.0	-7919.0	-5643791.0
16	15	9	29	646	237.0	196606.0	-8927.0	-5644589.0
16	15	9	29	647	238.0	213091.0	-9880.0	-5643808.0
16	15	9	29	647	239.0	227481.0	-10297.0	-5643174.0
16	15	9	29	647	240.0	231628.0	-10802.0	-5644041.0
16	15	9	29	647	241.0	224569.0	-11916.0	-5644592.0
16	15	9	29	647	242.0	215776.0	-12165.0	-5643735.0
16	15	9	29	648	243.0	209404.0	-12836.0	-5642957.0
16	15	9	29	648	244.0	199069.0	-13261.0	-5643384.0
16	15	9	29	648	245.0	178233.0	-14090.0	-5644499.0
16	15	9	29	649	247.0	135446.0	-15562.0	-5643055.0
16	15	9	29	649	248.0	114851.0	-16946.0	-5643725.0
16	15	9	29	649	249.0	94739.0	-19443.0	-5644499.0
16	15	9	29	649	250.0	74067.0	-20450.0	-5643780.0
16	15	9	29	649	251.0	60840.0	-21191.0	-5643095.0
16	15	9	29	650	252.0	50105.0	-21402.0	-5643951.0
16	15	9	29	650	253.0	48027.0	-21771.0	-5644432.0
16	15	9	29	744	254.0	49813.0	-21852.0	-5643659.0
16	15	9	29	744	255.0	42931.0	-21112.0	-5642976.0
16	15	9	29	745	0.0	35836.0	-19591.0	-5643922.0
16	15	9	29	745	1.0	32011.0	-19314.0	-5644250.0
16	15	9	29	745	2.0	38424.0	-19437.0	-5643477.0
16	15	9	29	746	3.0	49202.0	-19557.0	-5642757.0
16	15	9	29	746	4.0	63841.0	-19027.0	-5643900.0
16	15	9	29	746	5.0	90163.0	-18603.0	-5644310.0
16	15	9	29	747	6.0	111662.0	-17876.0	-5643564.0
16	15	9	29	747	7.0	119701.0	-16846.0	-5642724.0
16	15	9	29	747	8.0	119948.0	-16961.0	-5643347.0
16	15	9	29	747	9.0	118981.0	-17249.0	-5643983.0
16	15	9	29	748	10.0	116562.0	-16887.0	-5643310.0
16	15	9	29	748	11.0	108633.0	-17147.0	-5642923.0
16	15	9	29	748	12.0	104550.0	-17874.0	-5644301.0
16	15	9	29	748	14.0	93693.0	-18147.0	-5643239.0
16	15	9	29	749	15.0	87818.0	-19860.0	-5642692.0
16	15	9	29	749	16.0	82846.0	-20735.0	-5643769.0
16	15	9	29	749	17.0	83143.0	-20796.0	-5643535.0
16	15	9	29	749	18.0	83769.0	-20231.0	-5642790.0
16	15	9	29	750	19.0	73956.0	-19891.0	-5642919.0
16	15	9	29	750	20.0	65279.0	-19777.0	-5643989.0
16	15	9	29	750	21.0	57948.0	-19081.0	-5643264.0
16	15	9	29	750	22.0	46516.0	-16492.0	-5642561.0
16	15	9	29	751	23.0	43276.0	-15014.0	-5643233.0
16	15	9	29	751	24.0	51090.0	-14776.0	-5644129.0
16	15	9	29	751	25.0	65381.0	-14343.0	-5643327.0
16	15	9	29	752	26.0	84478.0	-13696.0	-5642652.0
16	15	9	29	752	27.0	101147.0	-13137.0	-5643449.0
16	15	9	29	752	28.0	113538.0	-12603.0	-5643956.0
16	15	9	29	752	29.0	118542.0	-12100.0	-5643129.0
16	15	9	29	753	30.0	114314.0	-11342.0	-5642525.0
16	15	9	29	753	31.0	102794.0	-11193.0	-5643614.0
16	15	9	29	753	32.0	98728.0	-10939.0	-5644121.0
16	15	9	29	753	33.0	106104.0	-10806.0	-5643290.0
16	15	9	29	754	34.0	115248.0	-10152.0	-5642623.0
16	15	9	29	754	36.0	116399.0	-8429.0	-5644140.0
16	15	9	29	754	37.0	102454.0	-9052.0	-5643326.0
16	15	9	29	755	38.0	90123.0	-10497.0	-5642564.0
16	15	9	29	755	39.0	82676.0	-10581.0	-5643259.0
16	15	9	29	755	40.0	77969.0	-10303.0	-5644079.0
16	15	9	29	756	41.0	63889.0	-9656.0	-5643321.0
16	15	9	29	756	42.0	41993.0	-9439.0	-5642585.0
16	15	9	29	756	43.0	20440.0	-9265.0	-5643486.0
16	15	9	29	756	44.0	4403.0	-7721.0	-5643985.0
16	15	9	29	757	45.0	-5872.0	-5668.0	-5643206.0
16	15	9	29	757	46.0	-14691.0	-5085.0	-5642509.0
16	15	9	29	757	47.0	-20503.0	-4222.0	-5643550.0
16	15	9	29	758	48.0	-20956.0	-3925.0	-5643909.0
16	15	9	29	758	49.0	-16503.0	-3311.0	-5643154.0
16	15	9	29	758	50.0	-3476.0	-3256.0	-5642364.0
16	15	9	29	759	51.0	1620.0	-3069.0	-5643279.0
16	15	9	29	759	52.0	-1207.0	-2420.0	-5643951.0
16	15	9	29	759	53.0	-3889.0	-2056.0	-5643249.0
16	15	9	29	822	54.0	-9429.0	-1964.0	-5642426.0
16	15	9	29	823	55.0	-25031.0	-2225.0	-5643155.0
16	15	9	29	823	56.0	-48119.0	-1921.0	-5643674.0
16	15	9	29	823	57.0	-70756.0	-1611.0	-5642971.0
16	15	9	29	824	59.0	-98371.0	-1831.0	-5643437.0
16	15	9	29	824	60.0	-104924.0	-4074.0	-5643216.0
16	15	9	29	824	61.0	-112282.0	-4994.0	-5642517.0
16	15	9	29	824	62.0	-114764.0	-4987.0	-5643247.0
16	15	9	29	825	63.0	-104679.0	-4870.0	-5644194.0
16	15	9	29	825	64.0	-84519.0	-4514.0	-5643372.0
16	15	9	29	825	65.0	-65731.0	-4659.0	-5642671.0
16	15	9	29	826	66.0	-48146.0	-3910.0	-5643226.0
16	15	9	29	826	67.0	-32377.0	-1575.0	-5644299.0
16	15	9	29	826	68.0	-25101.0	-517.0	-5643552.0
16	15	9	29	826	69.0	-24692.0	-362.0	-5642794.0
16	15	9	29	827	70.0	-18829.0	-589.0	-5642914.0
16	15	9	29	827	71.0	-3113.0	-380.0	-5644227.0
16	15	9	29	827	72.0	21364.0	-381.0	-5643638.0
16	15	9	29	827	73.0	62322.0	-381.0	-5642874.0
16	15	9	29	828	74.0	96894.0	-561.0	-5643114.0
16	15	9	29	828	75.0	129959.0	-604.0	-5644235.0
16	15	9	29	828	76.0	179439.0	253.0	-5643572.0
16	15	9	29	828	77.0	231696.0	407.0	-5642817.0
16	15	9	29	829	78.0	274535.0	-184.0	-5643177.0
16	15	9	29	829	79.0	304437.0	-462.0	-5644206.0
16	15	9	29	829	81.0	295712.0	-807.0	-5642848.0
16	15	9	29	829	82.0	267298.0	-2487.0	-5643733.0
16	15	9	29	829	83.0	153949.0	-4715.0	-5644206.0
16	15	9	29	830	84.0	-195465.0	-5161.0	-5643394.0
16	15	9	29	830	85.0	-667177.0	-5106.0	-5642542.0
16	15	9	29	830	86.0	-998451.0	-4622.0	-5643122.0
16	15	9	29	830	87.0	-1050093.0	-4582.0	-5644052.0
16	15	9	29	831	88.0	-848168.0	-4527.0	-5643409.0
16	15	9	29	831	89.0	-504449.0	-3552.0	-5642625.0
16	15	9	29	831	90.0	-184681.0	-1707.0	-5642997.0
16	15	9	29	831	91.0	-7592.0	-1841.0	-5644070.0
16	15	9	29	895	92.0	69091.0	-2308.0	-5643483.0
16	15	9	29	895	93.0	178046.0	-2023.0	-5642697.0
16	15	9	29	896	94.0	348743.0	-1436.0	-5643614.0
16	15	9	29	896	95.0	454836.0	-1409.0	-5644294.0
16	15	9	29	896	96.0	386223.0	-1436.0	-5643596.0
16	15	9	29	897	97.0	218240.0	-1596.0	-5642790.0
16	15	9	29	897	98.0	83673.0	-1550.0	-5643626.0
16	15	9	29	897	99.0	27238.0	-969.0	-5644196.0
16	15	9	29	897	100.0	25488.0	-601.0	-5643492.0
16	15	9	29	898	101.0	98276.0	-894.0	-5642652.0
16	15	9	29	898	102.0	224576.0	-1219.0	-5642985.0
16	15	9	29	898	104.0	421155.0	-1098.0	-5643434.0
16	15	9	29	898	105.0	412639.0	-3782.0	-5642526.0
16	15	9	29	899	106.0	274351.0	-4252.0	-5642742.0
16	15	9	29	899	107.0	77184.0	-4148.0	-5643679.0
16	15	9	29	899	108.0	-77801.0	-4119.0	-5643106.0
16	15	9	29	900	109.0	-134371.0	-4620.0	-5642344.0
16	15	9	29	900	110.0	-129074.0	-4662.0	-5643282.0
16	15	9	29	900	111.0	-107870.0	-3907.0	-5644006.0
16	15	9	29	900	112.0	-108520.0	-1382.0	-5643286.0
16	15	9	29	901	113.0	-135302.0	-866.0	-5642561.0
16	15	9	29	901	114.0	-202790.0	-1044.0	-5643236.0
16	15	9	29	901	115.0	-292413.0	-1028.0	-5643337.0
16	15	9	29	902	116.0	-373022.0	-1156.0	-5642597.0
16	15	9	29	902	117.0	-433502.0	-1279.0	-5642397.0
16	15	9	29	902	118.0	-464709.0	-729.0	-5643626.0
16	15	9	29	903	119.0	-458443.0	-587.0	-5643144.0
16	15	9	29	903	120.0	-430782.0	-492.0	-5642347.0
16	15	9	29	903	121.0	-394357.0	-488.0	-5642273.0
16	15	9	29	904	122.0	-358528.0	-482.0	-5643442.0
16	15	9	29	904	123.0	-330394.0	-397.0	-5642907.0
16	15	9	29	904	124.0	-320048.0	-299.0	-5642152.0
16	15	9	29	905	126.0	-334356.0	-151.0	-5643543.0
16	15	9	29	905	127.0	-349663.0	-1482.0	-5642806.0
16	15	9	29	905	128.0	-354001.0	-3007.0	-5642031.0
16	15	9	29	906	129.0	-350851.0	-2850.0	-5642664.0
16	15	9	29	906	130.0	-342387.0	-2907.0	-5643721.0
16	15	9	29	907	131.0	-327986.0	-3018.0	-5643001.0
16	15	9	29	970	132.0	-318467.0	-3181.0	-5642162.0
16	15	9	29	970	133.0	-298481.0	-2942.0	-5642104.0
16	15	9	29	971	134.0	-277509.0	-1329.0	-5643471.0
16	15	9	29	971	135.0	-249234.0	106.0	-5643116.0
16	15	9	29	971	136.0	-209677.0	767.0	-5642275.0
16	15	9	29	972	137.0	-160201.0	1085.0	-5642534.0
16	15	9	29	972	138.0	-93629.0	1470.0	-5643524.0
16	15	9	29	972	139.0	-30285.0	1992.0	-5642952.0
16	15	9	29	972	140.0	18342.0	2096.0	-5642162.0
16	15	9	29	973	141.0	63629.0	1459.0	-5643052.0
16	15	9	29	973	142.0	104049.0	1673.0	-5643719.0
16	15	9	29	973	143.0	137914.0	1813.0	-5643029.0
16	15	9	29	973	144.0	164444.0	2107.0	-5642197.0
16	15	9	29	974	145.0	184939.0	1710.0	-5642836.0
16	15	9	29	974	146.0	204936.0	1812.0	-5643728.0
16	15	9	29	974	149.0	204813.0	1986.0	-5642276.0
16	15	9	29	974	150.0	203112.0	-402.0	-5643654.0
16	15	9	29	974	151.0	206327.0	-919.0	-5643256.0
16	15	9	29	975	152.0	210886.0	-1172.0	-5642389.0
16	15	9	29	975	153.0	215733.0	-1204.0	-5642491.0
16	15	9	29	975	154.0	216589.0	-1034.0	-5643827.0
16	15	9	29	975	155.0	217113.0	-768.0	-5643436.0
16	15	9	29	976	156.0	218582.0	1104.0	-5642581.0
16	15	9	29	976	157.0	217687.0	4190.0	-5642933.0
16	15	9	29	976	158.0	217033.0	5349.0	-5644083.0
16	15	9	29	976	159.0	211321.0	5963.0	-5643529.0
16	15	9	29	977	160.0	205076.0	6392.0	-5642679.0
16	15	9	29	977	161.0	201348.0	7130.0	-5642961.0
16	15	9	29	977	162.0	185779.0	8267.0	-5643953.0
16	15	9	29	977	163.0	161625.0	9291.0	-5643332.0
16	15	9	29	977	164.0	138219.0	9902.0	-5642489.0
16	15	9	29	978	165.0	113131.0	10938.0	-5642562.0
16	15	9	29	978	166.0	77764.0	11838.0	-5643875.0
16	15	9	29	978	167.0	44907.0	13618.0	-5643416.0
16	15	9	30	46	168.0	12279.0	15021.0	-5642580.0
16	15	9	30	46	169.0	-24139.0	16728.0	-5642364.0
16	15	9	30	46	171.0	-78933.0	19958.0	-5643543.0
16	15	9	30	47	172.0	-104812.0	19918.0	-5642744.0
16	15	9	30	47	173.0	-122234.0	19381.0	-5643229.0
16	15	9	30	47	174.0	-139888.0	20928.0	-5644102.0
16	15	9	30	48	175.0	-160156.0	22441.0	-5643394.0
16	15	9	30	48	176.0	-159893.0	24496.0	-5642581.0
16	15	9	30	48	177.0	-144294.0	26060.0	-5642986.0
16	15	9	30	48	178.0	-132552.0	27769.0	-5644052.0
16	15	9	30	49	179.0	-129624.0	31771.0	-5643346.0
16	15	9	30	49	180.0	-121413.0	34984.0	-5642569.0
16	15	9	30	49	181.0	-109417.0	36495.0	-5642556.0
16	15	9	30	49	182.0	-95014.0	37818.0	-5643947.0
16	15	9	30	50	183.0	-75403.0	39399.0	-5643389.0
16	15	9	30	50	184.0	-48690.0	41044.0	-5642653.0
16	15	9	30	50	185.0	-23001.0	42254.0	-5643084.0
16	15	9	30	50	186.0	4005.0	43706.0	-5644284.0
16	15	9	30	51	187.0	39128.0	45072.0	-5643617.0
16	15	9	30	51	188.0	76282.0	45708.0	-5642912.0
16	15	9	30	51	189.0	107473.0	46819.0	-5643604.0
16	15	9	30	52	190.0	137454.0	48114.0	-5644517.0
16	15	9	30	52	191.0	175098.0	48247.0	-5643746.0
16	15	9	30	52	193.0	249751.0	48873.0	-5644195.0
16	15	9	30	53	194.0	274831.0	48329.0	-5644696.0
16	15	9	30	120	195.0	281356.0	46028.0	-5643795.0
16	15	9	30	121	196.0	264339.0	45264.0	-5643102.0
16	15	9	30	121	197.0	225593.0	45202.0	-5643846.0
16	15	9	30	199	198.0	163820.0	44834.0	-5644812.0
16	15	9	30	200	199.0	82334.0	44234.0	-5644020.0
16	15	9	30	200	200.0	-15891.0	43903.0	-5643303.0
16	15	9	30	200	201.0	-135900.0	44894.0	-5643747.0
16	15	9	30	201	202.0	-362414.0	44269.0	-5644632.0
16	15	9	30	201	203.0	-739469.0	43329.0	-5643849.0
16	15	9	30	201	204.0	-1003247.0	42234.0	-5643184.0
16	15	9	30	202	205.0	-685464.0	41721.0	-5644284.0
16	15	9	30	202	206.0	63015.0	40300.0	-5645105.0
16	15	9	30	202	207.0	559131.0	39296.0	-5644369.0
16	15	9	30	203	208.0	580506.0	37970.0	-5643689.0
16	15	9	30	203	209.0	499959.0	36711.0	-5644533.0
16	15	9	30	203	210.0	469169.0	35546.0	-5645277.0
16	15	9	30	203	216.0	45183.0	24919.0	-5643483.0
16	15	9	30	204	238.0	230524.0	-3826.0	-5645412.0
16	15	9	30	204	5.0	19696.0	-18003.0	-5645172.0
16	15	9	30	204	6.0	-3474.0	-19913.0	-5644429.0
16	15	9	30	204	7.0	-17348.0	-21401.0	-5643736.0
16	15	9	30	205	8.0	-26779.0	-20542.0	-5644671.0
16	15	9	30	205	9.0	-34804.0	-19068.0	-5644987.0
16	15	9	30	205	10.0	-40453.0	-18991.0	-5644242.0
16	15	9	30	205	11.0	-39906.0	-18932.0	-5643562.0
16	15	9	30	206	27.0	64479.0	-15511.0	-5643200.0
16	15	9	30	206	28.0	68194.0	-16261.0	-5644254.0
16	15	9	30	206	29.0	71771.0	-17807.0	-5644049.0
16	15	9	30	207	30.0	72159.0	-17462.0	-5643314.0
16	15	9	30	207	31.0	65298.0	-17137.0	-5643671.0
16	15	9	30	207	32.0	53426.0	-16719.0	-5644769.0
16	15	9	30	282	33.0	40430.0	-16256.0	-5644036.0
16	15	9	30	282	34.0	30519.0	-15506.0	-5643273.0
16	15	9	30	283	35.0	24879.0	-14403.0	-5643262.0
16	15	9	30	283	36.0	17211.0	-11897.0	-5644347.0
16	15	9	30	283	37.0	18103.0	-10891.0	-5643711.0
16	15	9	30	284	38.0	21179.0	-10282.0	-5643000.0
16	15	9	30	284	39.0	18375.0	-9450.0	-5643467.0
16	15	9	30	284	40.0	18313.0	-8867.0	-5644414.0
16	15	9	30	284	41.0	14894.0	-8217.0	-5643661.0
16	15	9	30	284	42.0	14217.0	-7721.0	-5643067.0
16	15	9	30	285	43.0	5923.0	-7132.0	-5644182.0
16	15	9	30	285	44.0	2782.0	-6727.0	-5644711.0
16	15	9	30	285	45.0	-1022.0	-5922.0	-5643843.0
16	15	9	30	285	46.0	-8831.0	-5438.0	-5643221.0
16	15	9	30	286	47.0	-16706.0	-5122.0	-5644143.0
16	15	9	30	286	48.0	-27635.0	-4710.0	-5644541.0
16	15	9	30	286	50.0	-73572.0	-3688.0	-5643042.0
16	15	9	30	286	51.0	-105291.0	-4926.0	-5644036.0
16	15	9	30	287	52.0	-121327.0	-5666.0	-5644691.0
16	15	9	30	287	53.0	-130474.0	-5276.0	-5643923.0
16	15	9	30	287	54.0	-134461.0	-4884.0	-5643189.0
16	15	9	30	287	55.0	-128572.0	-4589.0	-5643821.0
16	15	9	30	287	56.0	-125144.0	-4382.0	-5644506.0
16	15	9	30	288	57.0	-131817.0	-3947.0	-5643803.0
16	15	9	30	288	58.0	-141481.0	-1628.0	-5643208.0
16	15	9	30	288	59.0	-140341.0	-604.0	-5644363.0
16	15	9	30	288	60.0	-133408.0	-87.0	-5644436.0
16	15	9	30	289	61.0	-130218.0	-82.0	-5643660.0
16	15	9	30	289	62.0	-121769.0	449.0	-5643018.0
16	15	9	30	289	63.0	-113441.0	146.0	-5644249.0
16	15	9	30	289	64.0	-106520.0	163.0	-5644552.0
16	15	9	30	290	65.0	-101904.0	176.0	-5643791.0
16	15	9	30	290	66.0	-92283.0	-280.0	-5643047.0
16	15	9	30	290	67.0	-78479.0	321.0	-5643940.0
16	15	9	30	369	68.0	-62521.0	786.0	-5644362.0
16	15	9	30	370	69.0	-41309.0	808.0	-5643668.0
16	15	9	30	370	70.0	-18721.0	29.0	-5642907.0
16	15	9	30	371	72.0	13259.0	21.0	-5644099.0
16	15	9	30	371	73.0	20411.0	-721.0	-5643382.0
16	15	9	30	372	74.0	34129.0	-2826.0	-5642833.0
16	15	9	30	372	75.0	58673.0	-2871.0	-5643706.0
16	15	9	30	372	76.0	93288.0	-2803.0	-5643419.0
16	15	9	30	373	77.0	136493.0	-3059.0	-5642827.0
16	15	9	30	373	78.0	177733.0	-3095.0	-5643914.0
16	15	9	30	373	79.0	221321.0	-3062.0	-5644426.0
16	15	9	30	374	80.0	263124.0	-2215.0	-5643590.0
16	15	9	30	374	81.0	307767.0	226.0	-5642901.0
16	15	9	30	374	82.0	339421.0	800.0	-5643650.0
16	15	9	30	375	83.0	345985.0	359.0	-5644654.0
16	15	9	30	375	84.0	319609.0	9.0	-5643824.0
16	15	9	30	375	85.0	284927.0	-241.0	-5643093.0
16	15	9	30	376	86.0	261267.0	-559.0	-5643557.0
16	15	9	30	376	87.0	210554.0	-309.0	-5644506.0
16	15	9	30	377	88.0	-12691.0	-221.0	-5643726.0
16	15	9	30	377	89.0	-436737.0	-7.0	-5642925.0
16	15	9	30	377	90.0	-857592.0	-226.0	-5643306.0
16	15	9	30	377	91.0	-1069449.0	-99.0	-5644455.0
16	15	9	30	378	92.0	-998135.0	303.0	-5643764.0
16	15	9	30	378	93.0	-712556.0	4.0	-5643114.0
16	15	9	30	379	95.0	-97534.0	-710.0	-5644409.0
16	15	9	30	379	96.0	80421.0	-3166.0	-5643612.0
16	15	9	30	379	97.0	226278.0	-4066.0	-5643029.0
16	15	9	30	380	98.0	342250.0	-4403.0	-5644044.0
16	15	9	30	380	99.0	393966.0	-4530.0	-5644239.0
16	15	9	30	380	100.0	427971.0	-4545.0	-5643448.0
16	15	9	30	381	101.0	388034.0	-4175.0	-5642651.0
16	15	9	30	381	102.0	221373.0	-3878.0	-5643049.0
16	15	9	30	382	103.0	68570.0	-1851.0	-5644007.0
16	15	9	30	382	104.0	23418.0	-946.0	-5643360.0
16	15	9	30	452	105.0	64173.0	-761.0	-5642624.0
16	15	9	30	453	106.0	169766.0	-322.0	-5643706.0
16	15	9	30	453	107.0	308701.0	-489.0	-5644635.0
16	15	9	30	453	108.0	396495.0	-511.0	-5643896.0
16	15	9	30	454	109.0	381426.0	-263.0	-5643150.0
16	15	9	30	454	110.0	220938.0	-366.0	-5643822.0
16	15	9	30	454	111.0	-17683.0	-212.0	-5644324.0
16	15	9	30	455	112.0	-188566.0	-425.0	-5643557.0
16	15	9	30	455	113.0	-228888.0	-750.0	-5642886.0
16	15	9	30	455	114.0	-200942.0	-1624.0	-5644066.0
16	15	9	30	455	115.0	-154709.0	-1387.0	-5644455.0
16	15	9	30	456	117.0	-142789.0	-1438.0	-5642872.0
16	15	9	30	456	118.0	-213172.0	-2927.0	-5643534.0
16	15	9	30	456	119.0	-312889.0	-4535.0	-5644459.0
16	15	9	30	456	120.0	-391149.0	-4369.0	-5643792.0
16	15	9	30	457	121.0	-428159.0	-4681.0	-5642914.0
16	15	9	30	457	122.0	-435432.0	-4297.0	-5643106.0
16	15	9	30	457	123.0	-409822.0	-4310.0	-5644220.0
16	15	9	30	457	124.0	-348549.0	-4542.0	-5643736.0
16	15	9	30	458	125.0	-293267.0	-3608.0	-5642960.0
16	15	9	30	458	126.0	-255137.0	-1778.0	-5643856.0
16	15	9	30	458	127.0	-211264.0	-1597.0	-5644509.0
16	15	9	30	459	128.0	-204337.0	-1657.0	-5643801.0
16	15	9	30	459	129.0	-226686.0	-523.0	-5643037.0
16	15	9	30	459	130.0	-265784.0	-585.0	-5643859.0
16	15	9	30	459	131.0	-305626.0	-734.0	-5644173.0
16	15	9	30	460	132.0	-331147.0	-712.0	-5643426.0
16	15	9	30	460	133.0	-336392.0	-465.0	-5642583.0
16	15	9	30	460	134.0	-331084.0	-143.0	-5643165.0
16	15	9	30	461	135.0	-328644.0	-170.0	-5644067.0
16	15	9	30	461	136.0	-316410.0	-319.0	-5643406.0
16	15	9	30	461	137.0	-290900.0	-102.0	-5642627.0
16	15	9	30	462	138.0	-253840.0	-548.0	-5643093.0
16	15	9	30	462	140.0	-162576.0	-184.0	-5642821.0
16	15	9	30	462	141.0	-104998.0	-2385.0	-5643362.0
16	15	9	30	463	142.0	-44172.0	-3073.0	-5644381.0
16	15	9	30	463	143.0	16619.0	-2912.0	-5643638.0
16	15	9	30	463	144.0	74056.0	-2954.0	-5642920.0
16	15	9	30	464	145.0	120048.0	-3143.0	-5643457.0
16	15	9	30	464	146.0	158171.0	-2934.0	-5644463.0
16	15	9	30	551	147.0	196192.0	-2064.0	-5643722.0
16	15	9	30	551	148.0	225865.0	-320.0	-5642965.0
16	15	9	30	552	149.0	243205.0	-4.0	-5643501.0
16	15	9	30	552	150.0	251764.0	639.0	-5644415.0
16	15	9	30	552	151.0	261014.0	1140.0	-5643753.0
16	15	9	30	553	152.0	267459.0	1156.0	-5642976.0
16	15	9	30	553	153.0	262606.0	1481.0	-5643291.0
16	15	9	30	553	154.0	251193.0	1732.0	-5644447.0
16	15	9	30	553	155.0	229380.0	1873.0	-5643838.0
16	15	9	30	554	156.0	200139.0	1694.0	-5643085.0
16	15	9	30	554	157.0	174016.0	2075.0	-5643969.0
16	15	9	30	554	158.0	158624.0	2412.0	-5644665.0
16	15	9	30	555	159.0	144497.0	3251.0	-5643919.0
16	15	9	30	555	160.0	143739.0	4399.0	-5643116.0
16	15	9	30	555	162.0	163351.0	6402.0	-5644603.0
16	15	9	30	555	170.0	146119.0	11923.0	-5644362.0
16	15	9	30	556	171.0	122424.0	10499.0	-5643802.0
16	15	9	30	556	172.0	84871.0	10757.0	-5642966.0
16	15	9	30	556	173.0	31762.0	11743.0	-5643647.0
16	15	9	30	557	174.0	-1656.0	12776.0	-5644613.0
16	15	9	30	557	175.0	-7531.0	13654.0	-5644000.0
16	15	9	30	557	176.0	-21736.0	15076.0	-5643181.0
16	15	9	30	557	177.0	-56296.0	18496.0	-5643888.0
16	15	9	30	558	178.0	-103025.0	19587.0	-5644387.0
16	15	9	30	558	179.0	-138971.0	20244.0	-5643665.0
16	15	9	30	558	180.0	-160163.0	24304.0	-5642922.0
16	15	9	30	559	181.0	-174539.0	26393.0	-5643827.0
16	15	9	30	559	182.0	-181540.0	27868.0	-5644553.0
16	15	9	30	559	183.0	-174251.0	29313.0	-5643838.0
16	15	9	30	559	184.0	-156622.0	30616.0	-5643036.0
16	15	9	30	560	185.0	-142442.0	31583.0	-5643256.0
16	15	9	30	560	186.0	-128816.0	30717.0	-5644569.0
16	15	9	30	560	187.0	-102188.0	31181.0	-5644034.0
16	15	9	30	561	188.0	-76703.0	33108.0	-5643236.0
16	15	9	30	561	189.0	-55590.0	36793.0	-5643681.0
16	15	9	30	561	190.0	-34066.0	38186.0	-5644271.0
16	15	9	30	562	191.0	-10113.0	39636.0	-5643590.0
16	15	9	30	562	192.0	19815.0	41081.0	-5643408.0
16	15	9	30	562	193.0	52914.0	40579.0	-5644658.0
16	15	9	30	563	194.0	91622.0	39281.0	-5644174.0
16	15	9	30	563	195.0	139460.0	40136.0	-5643342.0
16	15	9	30	563	196.0	181619.0	43229.0	-5643104.0
16	15	9	30	564	197.0	217904.0	43876.0	-5644302.0
16	15	9	30	564	198.0	241412.0	44063.0	-5643961.0
16	15	9	30	564	199.0	256773.0	44736.0	-5643151.0
16	15	9	30	565	200.0	250591.0	44665.0	-5643216.0
16	15	9	30	565	201.0	216482.0	42855.0	-5644489.0
16	15	9	30	565	202.0	160259.0	42371.0	-5644024.0
16	15	9	30	566	203.0	90428.0	43443.0	-5643218.0
16	15	9	30	566	204.0	18391.0	44261.0	-5643757.0
16	15	9	30	566	205.0	-84387.0	44056.0	-5644596.0
16	15	9	30	567	206.0	-298716.0	43359.0	-5643917.0
16	15	9	30	567	207.0	-619699.0	42402.0	-5643136.0
16	15	9	30	567	208.0	-823397.0	39869.0	-5643888.0
16	15	9	30	657	209.0	-586551.0	36932.0	-5644706.0
16	15	9	30	657	210.0	30180.0	36242.0	-5644067.0
16	15	9	30	658	211.0	493337.0	37251.0	-5643170.0
16	15	9	30	658	212.0	538901.0	37458.0	-5643277.0
16	15	9	30	658	213.0	472828.0	36233.0	-5644575.0
16	15	9	30	659	214.0	445298.0	35146.0	-5644164.0
16	15	9	30	659	215.0	361995.0	33449.0	-5643287.0
16	15	9	30	660	216.0	269195.0	29299.0	-5643690.0
16	15	9	30	660	217.0	192304.0	27184.0	-5644874.0
16	15	9	30	660	218.0	99331.0	27739.0	-5644325.0
16	15	9	30	661	219.0	40485.0	27564.0	-5643500.0
16	15	9	30	661	220.0	2939.0	26674.0	-5644084.0
16	15	9	30	661	221.0	-50343.0	25358.0	-5644962.0
16	15	9	30	662	222.0	-78958.0	23614.0	-5644312.0
16	15	9	30	662	223.0	-79667.0	20741.0	-5643447.0
16	15	9	30	662	224.0	-101312.0	17825.0	-5643740.0
16	15	9	30	663	225.0	-127390.0	15975.0	-5644797.0
16	15	9	30	663	226.0	-147720.0	16708.0	-5644233.0
16	15	9	30	663	227.0	-160812.0	16024.0	-5643375.0
16	15	9	30	664	228.0	-189567.0	14374.0	-5643329.0
16	15	9	30	664	229.0	-252737.0	13334.0	-5644357.0
16	15	9	30	664	230.0	-355272.0	11599.0	-5643821.0
16	15	9	30	664	231.0	-428480.0	8539.0	-5643058.0
16	15	9	30	665	232.0	-415217.0	6726.0	-5643418.0
16	15	9	30	665	233.0	-362964.0	7032.0	-5644396.0
16	15	9	30	665	234.0	-294619.0	6942.0	-5643756.0
16	15	9	30	666	235.0	-225552.0	6004.0	-5643027.0
16	15	9	30	666	236.0	-175319.0	5025.0	-5643352.0
16	15	9	30	666	237.0	-144915.0	3309.0	-5644038.0
16	15	9	30	667	238.0	-128794.0	959.0	-5643396.0
16	15	9	30	667	239.0	-106071.0	-1358.0	-5643449.0
16	15	9	30	667	240.0	-68661.0	-2101.0	-5644869.0
16	15	9	30	668	241.0	-22780.0	-997.0	-5644386.0
16	15	9	30	668	242.0	28693.0	-1049.0	-5643608.0
16	15	9	30	669	243.0	79142.0	-1355.0	-5643021.0
16	15	9	30	669	244.0	122215.0	-2336.0	-5644072.0
16	15	9	30	669	245.0	160566.0	-4323.0	-5644172.0
16	15	9	30	670	246.0	194680.0	-7164.0	-5643289.0
16	15	9	30	670	247.0	223038.0	-8856.0	-5643147.0
16	15	9	30	670	248.0	241093.0	-7915.0	-5644582.0
16	15	9	30	671	249.0	258748.0	-7468.0	-5644322.0
16	15	9	30	671	250.0	275588.0	-7887.0	-5643452.0
16	15	9	30	671	251.0	284796.0	-8688.0	-5643402.0
16	15	9	30	672	252.0	283668.0	-9780.0	-5644649.0
16	15	9	30	672	253.0	277489.0	-12789.0	-5644289.0
16	15	9	30	672	254.0	280183.0	-14916.0	-5643423.0
16	15	9	30	673	255.0	283189.0	-15116.0	-5643506.0
16	15	9	30	673	0.0	279044.0	-13885.0	-5644676.0
16	15	9	30	673	1.0	275635.0	-14235.0	-5644240.0
16	15	9	30	673	2.0	269271.0	-14686.0	-5643343.0
16	15	9	30	674	3.0	262954.0	-14702.0	-5643155.0
16	15	9	30	674	4.0	254881.0	-15984.0	-5644492.0
16	15	9	30	674	5.0	239486.0	-18723.0	-5644234.0
16	15	9	30	675	6.0	228394.0	-19576.0	-5643397.0
16	15	9	30	769	7.0	212766.0	-18117.0	-5643004.0
16	15	9	30	770	8.0	187081.0	-17561.0	-5644291.0
16	15	9	30	770	9.0	158226.0	-17479.0	-5644186.0
16	15	9	30	770	10.0	130621.0	-17639.0	-5643356.0
16	15	9	30	771	11.0	107322.0	-18222.0	-5643527.0
16	15	9	30	771	12.0	94608.0	-19749.0	-5644746.0
16	15	9	30	772	13.0	92386.0	-21694.0	-5644189.0
16	15	9	30	772	14.0	97363.0	-21449.0	-5643369.0
16	15	9	30	772	15.0	104738.0	-19183.0	-5643202.0
16	15	9	30	772	16.0	112128.0	-18659.0	-5644741.0
16	15	9	30	773	17.0	114244.0	-18302.0	-5644477.0
16	15	9	30	773	18.0	110936.0	-18095.0	-5643648.0
16	15	9	30	774	19.0	108766.0	-18751.0	-5643264.0
16	15	9	30	774	20.0	109140.0	-21054.0	-5644612.0
16	15	9	30	774	21.0	111525.0	-20993.0	-5644331.0
16	15	9	30	774	22.0	105593.0	-19567.0	-5643546.0
16	15	9	30	775	23.0	97023.0	-18130.0	-5643349.0
16	15	9	30	775	24.0	83641.0	-18087.0	-5644255.0
16	15	9	30	775	25.0	65756.0	-17684.0	-5643717.0
16	15	9	30	776	26.0	56073.0	-17182.0	-5643366.0
16	15	9	30	776	27.0	50406.0	-19084.0	-5644789.0
16	15	9	30	776	28.0	39236.0	-20468.0	-5644705.0
16	15	9	30	777	29.0	24878.0	-19711.0	-5643889.0
16	15	9	30	777	30.0	14975.0	-17620.0	-5643592.0
16	15	9	30	777	31.0	6764.0	-16609.0	-5644884.0
16	15	9	30	777	32.0	3843.0	-15989.0	-5644659.0
16	15	9	30	778	33.0	10713.0	-16132.0	-5643818.0
16	15	9	30	778	34.0	14804.0	-15844.0	-5643694.0
16	15	9	30	778	35.0	14567.0	-17379.0	-5644794.0
16	15	9	30	778	36.0	13623.0	-17257.0	-5644408.0
16	15	9	30	779	37.0	20491.0	-14645.0	-5643542.0
16	15	9	30	779	38.0	31798.0	-13292.0	-5643213.0
16	15	9	30	779	39.0	49792.0	-12690.0	-5644471.0
16	15	9	30	780	40.0	60186.0	-11964.0	-5644411.0
16	15	9	30	780	41.0	68466.0	-11471.0	-5643532.0
16	15	9	30	780	42.0	76385.0	-12969.0	-5643280.0
16	15	9	30	781	43.0	79573.0	-13886.0	-5644548.0
16	15	9	30	781	44.0	76236.0	-12731.0	-5644389.0
16	15	9	30	781	45.0	76270.0	-9820.0	-5643535.0
16	15	9	30	782	46.0	84611.0	-8526.0	-5643283.0
16	15	9	30	782	47.0	92329.0	-8420.0	-5644486.0
16	15	9	30	782	48.0	91603.0	-7562.0	-5644289.0
16	15	9	30	783	49.0	83524.0	-7714.0	-5643434.0
16	15	9	30	783	50.0	78091.0	-10054.0	-5643360.0
16	15	9	30	783	51.0	78815.0	-9539.0	-5644523.0
16	15	9	30	783	52.0	78632.0	-6571.0	-5644092.0
16	15	9	30	784	53.0	71921.0	-5718.0	-5643264.0
16	15	9	30	784	54.0	55424.0	-4776.0	-5643099.0
16	15	9	30	784	55.0	34031.0	-4190.0	-5644489.0
16	15	9	30	785	56.0	10567.0	-3428.0	-5644189.0
16	15	9	30	898	57.0	-10840.0	-4874.0	-5643376.0
16	15	9	30	898	58.0	-34566.0	-5711.0	-5642964.0
16	15	9	30	898	59.0	-64262.0	-4157.0	-5644294.0
16	15	9	30	899	60.0	-96037.0	-2440.0	-5644179.0
16	15	9	30	899	61.0	-126606.0	-2065.0	-5643366.0
16	15	9	30	899	62.0	-151310.0	-1496.0	-5643344.0
16	15	9	30	900	63.0	-167651.0	-987.0	-5644509.0
16	15	9	30	900	64.0	-185147.0	-1117.0	-5643989.0
16	15	9	30	900	65.0	-200143.0	-3074.0	-5643196.0
16	15	9	30	901	66.0	-206901.0	-3287.0	-5643361.0
16	15	9	30	901	67.0	-215901.0	-1825.0	-5644715.0
16	15	9	30	901	68.0	-225591.0	176.0	-5644096.0
16	15	9	30	902	69.0	-229462.0	276.0	-5643355.0
16	15	9	30	902	70.0	-223579.0	938.0	-5643106.0
16	15	9	30	902	71.0	-196927.0	1103.0	-5644528.0
16	15	9	30	902	72.0	-174389.0	-549.0	-5644131.0
16	15	9	30	903	73.0	-157488.0	-1329.0	-5643391.0
16	15	9	30	903	74.0	-128394.0	536.0	-5643158.0
16	15	9	30	903	75.0	-94682.0	1756.0	-5644699.0
16	15	9	30	904	76.0	-60003.0	2142.0	-5644356.0
16	15	9	30	904	77.0	-26684.0	2704.0	-5643633.0
16	15	9	30	904	78.0	2800.0	2491.0	-5643812.0
16	15	9	30	905	79.0	28649.0	1433.0	-5644915.0
16	15	9	30	905	80.0	43274.0	-899.0	-5644200.0
16	15	9	30	905	81.0	46024.0	-1407.0	-5643453.0
16	15	9	30	906	82.0	58375.0	-489.0	-5643957.0
16	15	9	30	906	83.0	88128.0	1560.0	-5644940.0
16	15	9	30	906	84.0	123906.0	1736.0	-5644168.0
16	15	9	30	907	85.0	161315.0	2078.0	-5643421.0
16	15	9	30	907	86.0	207432.0	2011.0	-5643516.0
16	15	9	30	907	87.0	250374.0	-227.0	-5644762.0
16	15	9	30	908	88.0	292110.0	-1511.0	-5644142.0
16	15	9	30	908	89.0	325439.0	577.0	-5643391.0
16	15	9	30	909	90.0	342849.0	1608.0	-5643786.0
16	15	9	30	909	91.0	345933.0	1044.0	-5644904.0
16	15	9	30	909	92.0	327161.0	668.0	-5644198.0
16	15	9	30	910	93.0	299564.0	1371.0	-5643482.0
16	15	9	30	910	94.0	279010.0	61.0	-5643937.0
16	15	9	30	910	95.0	161353.0	-621.0	-5644841.0
16	15	9	30	911	96.0	-249276.0	607.0	-5644061.0
16	15	9	30	911	97.0	-818984.0	820.0	-5643276.0
16	15	9	30	911	98.0	-1204403.0	438.0	-5643830.0
16	15	9	30	912	99.0	-1224287.0	359.0	-5644549.0
16	15	9	30	912	100.0	-954020.0	341.0	-5643816.0
16	15	9	30	913	101.0	-535606.0	183.0	-5643117.0
16	15	9	30	913	102.0	-121312.0	-1849.0	-5644025.0
16	15	9	30	913	103.0	148387.0	-2214.0	-5644756.0
16	15	9	30	914	104.0	273501.0	-507.0	-5644014.0
16	15	9	30	914	105.0	374494.0	-245.0	-5643208.0
16	15	9	30	914	108.0	381136.0	-497.0	-5643858.0
16	15	9	30	915	109.0	203291.0	-1319.0	-5643108.0
16	15	9	30	915	116.0	309069.0	-797.0	-5643458.0
16	15	9	30	915	117.0	275554.0	-3203.0	-5642651.0
16	15	9	30	916	118.0	128714.0	-4579.0	-5643526.0
16	15	9	30	916	119.0	-57542.0	-4221.0	-5644416.0
16	15	9	30	916	120.0	-165377.0	-2079.0	-5643759.0
16	15	9	30	917	121.0	-171541.0	-1414.0	-5643087.0
16	15	9	30	917	122.0	-135573.0	-1755.0	-5644352.0
16	15	9	30	917	123.0	-110318.0	-1764.0	-5644677.0
16	15	9	30	918	124.0	-112281.0	-2462.0	-5643927.0
16	15	9	30	918	125.0	-160694.0	-3843.0	-5643252.0
16	15	9	30	918	126.0	-242762.0	-3811.0	-5644480.0
16	15	9	30	919	127.0	-327816.0	-4019.0	-5644729.0
16	15	9	30	919	128.0	-385561.0	-3947.0	-5643951.0
16	15	9	30	919	129.0	-400962.0	-4074.0	-5643191.0
16	15	9	30	920	130.0	-373799.0	-3581.0	-5643723.0
16	15	9	31	26	131.0	-329196.0	-1429.0	-5643730.0
16	15	9	31	26	132.0	-292455.0	-2709.0	-5642999.0
16	15	9	31	26	133.0	-277373.0	-1772.0	-5642935.0
16	15	9	31	27	134.0	-270167.0	-625.0	-5644067.0
16	15	9	31	27	135.0	-280417.0	123.0	-5643557.0
16	15	9	31	28	136.0	-294732.0	301.0	-5642793.0
16	15	9	31	28	137.0	-304707.0	240.0	-5642891.0
16	15	9	31	28	138.0	-328519.0	672.0	-5644019.0
16	15	9	31	29	139.0	-356735.0	-347.0	-5643462.0
16	15	9	31	29	140.0	-363414.0	-2160.0	-5642718.0
16	15	9	31	29	141.0	-344927.0	-2524.0	-5643447.0
16	15	9	31	30	142.0	-316429.0	-1773.0	-5644034.0
16	15	9	31	30	143.0	-282084.0	28.0	-5643289.0
16	15	9	31	31	144.0	-242104.0	366.0	-5642565.0
16	15	9	31	31	145.0	-198769.0	718.0	-5643541.0
16	15	9	31	31	146.0	-153906.0	450.0	-5644294.0
16	15	9	31	32	147.0	-108882.0	-1228.0	-5643563.0
16	15	9	31	32	148.0	-61341.0	-1934.0	-5642732.0
16	15	9	31	32	149.0	-8471.0	205.0	-5643052.0
16	15	9	31	33	150.0	45940.0	1076.0	-5644107.0
16	15	9	31	33	151.0	104359.0	1067.0	-5643545.0
16	15	9	31	33	152.0	160893.0	1306.0	-5642696.0
16	15	9	31	33	153.0	204374.0	1695.0	-5642984.0
16	15	9	31	34	154.0	235645.0	783.0	-5643982.0
16	15	9	31	34	155.0	259349.0	-1576.0	-5643436.0
16	15	9	31	34	156.0	278272.0	-1434.0	-5642605.0
16	15	9	31	35	157.0	282868.0	661.0	-5643019.0
16	15	9	31	35	158.0	278772.0	2286.0	-5644214.0
16	15	9	31	35	159.0	267725.0	2289.0	-5643686.0
16	15	9	31	36	160.0	252662.0	1789.0	-5642847.0
16	15	9	31	36	161.0	229836.0	2137.0	-5643410.0
16	15	9	31	36	162.0	203193.0	2404.0	-5644216.0
16	15	9	31	37	163.0	179823.0	2783.0	-5643549.0
16	15	9	31	37	164.0	167501.0	3244.0	-5642666.0
16	15	9	31	37	165.0	163149.0	4088.0	-5642886.0
16	15	9	31	37	166.0	159606.0	4273.0	-5644102.0
16	15	9	31	38	167.0	160492.0	4320.0	-5643584.0
16	15	9	31	38	168.0	168001.0	4484.0	-5642753.0
16	15	9	31	38	169.0	174631.0	4059.0	-5643316.0
16	15	9	31	39	170.0	158384.0	2589.0	-5644217.0
16	15	9	31	39	171.0	140075.0	2568.0	-5643518.0
16	15	9	31	39	172.0	134473.0	3294.0	-5642821.0
16	15	9	31	40	173.0	133063.0	4418.0	-5643811.0
16	15	9	31	40	174.0	121018.0	5018.0	-5644147.0
16	15	9	31	40	175.0	101424.0	7388.0	-5643367.0
16	15	9	31	41	176.0	89752.0	10382.0	-5642819.0
16	15	9	31	41	177.0	79121.0	10449.0	-5643932.0
16	15	9	31	41	178.0	59264.0	12726.0	-5644021.0
16	15	9	31	42	179.0	37678.0	14519.0	-5643164.0
16	15	9	31	42	180.0	19418.0	15826.0	-5642786.0
16	15	9	31	43	181.0	-1393.0	18006.0	-5644122.0
16	15	9	31	43	182.0	-28357.0	19693.0	-5644078.0
16	15	9	31	43	183.0	-44369.0	21313.0	-5643207.0
16	15	9	31	44	184.0	-55239.0	21586.0	-5642701.0
16	15	9	31	44	185.0	-67041.0	21896.0	-5643766.0
16	15	9	31	44	186.0	-76428.0	23219.0	-5643922.0
16	15	9	31	45	187.0	-81886.0	25603.0	-5643071.0
16	15	9	31	45	188.0	-90875.0	29830.0	-5643083.0
16	15	9	31	45	189.0	-98614.0	31607.0	-5644446.0
16	15	9	31	46	190.0	-102132.0	32988.0	-5644068.0
16	15	9	31	46	191.0	-109924.0	34890.0	-5643184.0
16	15	9	31	46	192.0	-119442.0	34369.0	-5643071.0
16	15	9	31	154	193.0	-121664.0	35650.0	-5644068.0
16	15	9	31	154	194.0	-112720.0	39443.0	-5643657.0
16	15	9	31	155	195.0	-95902.0	41474.0	-5642733.0
16	15	9	31	155	196.0	-76051.0	43013.0	-5642454.0
16	15	9	31	155	197.0	-66038.0	44472.0	-5643715.0
16	15	9	31	156	198.0	-51114.0	45688.0	-5643507.0
16	15	9	31	156	199.0	-29866.0	45726.0	-5642670.0
16	15	9	31	156	200.0	-2878.0	44642.0	-5642492.0
16	15	9	31	156	201.0	32859.0	45075.0	-5643934.0
16	15	9	31	157	202.0	70853.0	47583.0	-5643685.0
16	15	9	31	157	203.0	112208.0	49283.0	-5642964.0
16	15	9	31	157	204.0	159230.0	50317.0	-5643707.0
16	15	9	31	158	205.0	213296.0	50794.0	-5644576.0
16	15	9	31	158	206.0	256974.0	50158.0	-5643861.0
16	15	9	31	158	207.0	287131.0	47430.0	-5643052.0
16	15	9	31	158	208.0	304505.0	46378.0	-5642916.0
16	15	9	31	159	209.0	307024.0	47101.0	-5644173.0
16	15	9	31	159	210.0	293076.0	48135.0	-5643738.0
16	15	9	31	159	211.0	259333.0	48283.0	-5642932.0
16	15	9	31	160	212.0	206435.0	47863.0	-5642845.0
16	15	9	31	160	213.0	145873.0	47036.0	-5643789.0
16	15	9	31	160	214.0	89630.0	44908.0	-5643208.0
16	15	9	31	160	215.0	29873.0	41829.0	-5642596.0
16	15	9	31	161	216.0	-79319.0	41341.0	-5643671.0
16	15	9	31	161	217.0	-325614.0	41691.0	-5643942.0
16	15	9	31	161	218.0	-631623.0	40722.0	-5643116.0
16	15	9	31	162	219.0	-705897.0	39639.0	-5642906.0
16	15	9	31	162	220.0	-335851.0	38217.0	-5644156.0
16	15	9	31	162	221.0	196491.0	36380.0	-5643882.0
16	15	9	31	162	222.0	417654.0	32947.0	-5643048.0
16	15	9	31	163	223.0	355525.0	30997.0	-5642687.0
16	15	9	31	163	224.0	291309.0	31070.0	-5644084.0
16	15	9	31	163	225.0	207237.0	31203.0	-5644076.0
16	15	9	31	164	226.0	92179.0	29609.0	-5643216.0
16	15	9	31	164	227.0	30936.0	28687.0	-5642691.0
16	15	9	31	164	228.0	-14669.0	27165.0	-5643784.0
16	15	9	31	164	229.0	-65843.0	23745.0	-5643976.0
16	15	9	31	165	230.0	-95336.0	20193.0	-5643101.0
16	15	9	31	165	231.0	-136042.0	18451.0	-5642624.0
16	15	9	31	165	232.0	-196207.0	18839.0	-5643971.0
16	15	9	31	165	233.0	-245047.0	18342.0	-5644232.0
16	15	9	31	166	234.0	-297091.0	16900.0	-5643368.0
16	15	9	31	166	235.0	-361862.0	15603.0	-5643097.0
16	15	9	31	166	236.0	-404598.0	14032.0	-5644300.0
16	15	9	31	167	237.0	-375043.0	10429.0	-5644106.0
16	15	9	31	167	238.0	-270987.0	8486.0	-5643255.0
16	15	9	31	167	239.0	-130119.0	9028.0	-5643012.0
16	15	9	31	167	240.0	-27137.0	8826.0	-5644328.0
16	15	9	31	168	241.0	8855.0	7593.0	-5644177.0
16	15	9	31	168	242.0	446.0	6308.0	-5643304.0
16	15	9	31	168	243.0	-38865.0	5016.0	-5642909.0
16	15	9	31	169	244.0	-76650.0	2565.0	-5644214.0
16	15	9	31	169	245.0	-96163.0	-875.0	-5644126.0
16	15	9	31	169	246.0	-96906.0	-1859.0	-5643305.0
16	15	9	31	170	247.0	-91948.0	-1107.0	-5642811.0
16	15	9	31	170	248.0	-81735.0	-1817.0	-5643906.0
16	15	9	31	170	249.0	-65194.0	-2651.0	-5643821.0
16	15	9	31	171	250.0	-40221.0	-3712.0	-5643037.0
16	15	9	31	171	251.0	-16413.0	-5412.0	-5643575.0
16	15	9	31	172	252.0	15307.0	-8392.0	-5644507.0
16	15	9	31	172	253.0	55573.0	-10001.0	-5643824.0
16	15	9	31	172	254.0	91418.0	-9074.0	-5643015.0
16	15	9	31	173	255.0	123543.0	-8476.0	-5642745.0
16	15	9	31	173	0.0	157559.0	-8899.0	-5644076.0
16	15	9	31	173	1.0	191124.0	-9617.0	-5643717.0
16	15	9	31	173	2.0	223741.0	-10377.0	-5642931.0
16	15	9	31	174	3.0	251626.0	-12277.0	-5642586.0
16	15	9	31	279	4.0	270842.0	-14740.0	-5643534.0
16	15	9	31	279	5.0	276687.0	-15366.0	-5643032.0
16	15	9	31	279	6.0	278365.0	-13799.0	-5642509.0
16	15	9	31	280	7.0	267241.0	-13800.0	-5643573.0
16	15	9	31	280	8.0	246433.0	-14410.0	-5643703.0
16	15	9	31	280	9.0	219734.0	-14429.0	-5642807.0
16	15	9	31	280	10.0	199008.0	-14944.0	-5642366.0
16	15	9	31	281	11.0	174626.0	-17802.0	-5643565.0
16	15	9	31	281	12.0	156455.0	-18886.0	-5643599.0
16	15	9	31	281	13.0	138996.0	-17001.0	-5642713.0
16	15	9	31	282	14.0	129235.0	-16512.0	-5642452.0
16	15	9	31	282	15.0	114568.0	-17842.0	-5643787.0
16	15	9	31	282	16.0	92169.0	-18116.0	-5643632.0
16	15	9	31	283	17.0	73404.0	-18092.0	-5642761.0
16	15	9	31	283	18.0	57903.0	-19861.0	-5642600.0
16	15	9	31	283	19.0	47694.0	-22021.0	-5643849.0
16	15	9	31	283	20.0	43385.0	-22561.0	-5643566.0
16	15	9	31	284	21.0	38166.0	-20741.0	-5642686.0
16	15	9	31	284	22.0	33206.0	-20466.0	-5642595.0
16	15	9	31	284	23.0	32366.0	-20517.0	-5643739.0
16	15	9	31	285	24.0	40653.0	-20218.0	-5643343.0
16	15	9	31	285	25.0	53106.0	-20834.0	-5642475.0
16	15	9	31	285	26.0	75103.0	-23104.0	-5642481.0
16	15	9	31	286	27.0	96903.0	-23142.0	-5643642.0
16	15	9	31	286	28.0	105864.0	-21206.0	-5643182.0
16	15	9	31	286	29.0	100442.0	-20138.0	-5642422.0
16	15	9	31	287	30.0	89019.0	-20183.0	-5642970.0
16	15	9	31	287	31.0	62591.0	-20254.0	-5643179.0
16	15	9	31	287	32.0	37256.0	-20106.0	-5642482.0
16	15	9	31	287	33.0	17922.0	-21812.0	-5642811.0
16	15	9	31	288	34.0	1566.0	-22976.0	-5644116.0
16	15	9	31	288	35.0	-16821.0	-22274.0	-5643452.0
16	15	9	31	288	36.0	-37234.0	-19342.0	-5642657.0
16	15	9	31	289	37.0	-60146.0	-18156.0	-5642622.0
16	15	9	31	289	38.0	-77478.0	-17745.0	-5643883.0
16	15	9	31	289	39.0	-80938.0	-17643.0	-5643390.0
16	15	9	31	290	40.0	-80379.0	-17467.0	-5642596.0
16	15	9	31	290	41.0	-80826.0	-19514.0	-5642349.0
16	15	9	31	290	42.0	-77744.0	-19904.0	-5643613.0
16	15	9	31	291	43.0	-71389.0	-17612.0	-5643260.0
16	15	9	31	292	44.0	-60131.0	-15619.0	-5642479.0
16	15	9	31	292	45.0	-41112.0	-15505.0	-5642961.0
16	15	9	31	293	46.0	-19135.0	-15104.0	-5644152.0
16	15	9	31	293	47.0	7110.0	-14601.0	-5643477.0
16	15	9	31	293	48.0	42383.0	-15889.0	-5642657.0
16	15	9	31	294	49.0	77249.0	-16937.0	-5642552.0
16	15	9	31	294	50.0	110564.0	-16109.0	-5643796.0
16	15	9	31	294	51.0	137111.0	-13016.0	-5643380.0
16	15	9	31	295	52.0	154408.0	-11129.0	-5642539.0
16	15	9	31	295	53.0	158401.0	-11095.0	-5642363.0
16	15	9	31	296	54.0	154751.0	-10727.0	-5643702.0
16	15	9	31	296	55.0	156417.0	-10710.0	-5643404.0
16	15	9	31	296	56.0	157682.0	-12632.0	-5642531.0
16	15	9	31	296	57.0	147832.0	-12396.0	-5642454.0
16	15	9	31	297	58.0	140751.0	-9928.0	-5643621.0
16	15	9	31	297	59.0	135088.0	-8438.0	-5643252.0
16	15	9	31	297	60.0	130436.0	-7676.0	-5642449.0
16	15	9	31	298	61.0	123821.0	-7261.0	-5642766.0
16	15	9	31	298	62.0	113134.0	-6550.0	-5643789.0
16	15	9	31	298	63.0	105448.0	-7542.0	-5643227.0
16	15	9	31	299	64.0	97018.0	-8765.0	-5642400.0
16	15	9	31	299	65.0	92524.0	-7998.0	-5642976.0
16	15	9	31	421	66.0	88661.0	-5014.0	-5643783.0
16	15	9	31	422	67.0	85779.0	-3640.0	-5643104.0
16	15	9	31	422	68.0	72806.0	-3189.0	-5642199.0
16	15	9	31	422	69.0	47553.0	-3235.0	-5642444.0
16	15	9	31	423	70.0	20816.0	-3588.0	-5643728.0
16	15	9	31	423	71.0	-8457.0	-5201.0	-5643259.0
16	15	9	31	424	72.0	-43035.0	-5207.0	-5642386.0
16	15	9	31	424	73.0	-73600.0	-3015.0	-5642658.0
16	15	9	31	424	74.0	-98547.0	-1597.0	-5643628.0
16	15	9	31	425	75.0	-118489.0	-1582.0	-5643041.0
16	15	9	31	425	76.0	-143689.0	-1380.0	-5642313.0
16	15	9	31	425	77.0	-165148.0	-1339.0	-5643357.0
16	15	9	31	426	78.0	-178015.0	-2936.0	-5643723.0
16	15	9	31	426	79.0	-173311.0	-4103.0	-5642989.0
16	15	9	31	426	80.0	-151846.0	-3609.0	-5642217.0
16	15	9	31	427	81.0	-120241.0	-2150.0	-5642849.0
16	15	9	31	427	82.0	-94152.0	-839.0	-5643139.0
16	15	9	31	427	83.0	-75477.0	-541.0	-5642369.0
16	15	9	31	427	84.0	-52049.0	-570.0	-5642243.0
16	15	9	31	428	85.0	-35571.0	-1658.0	-5643626.0
16	15	9	31	428	86.0	-25223.0	-4083.0	-5643167.0
16	15	9	31	428	87.0	-9327.0	-3634.0	-5642383.0
16	15	9	31	429	88.0	-8321.0	-1757.0	-5641952.0
16	15	9	31	429	89.0	-36772.0	-1012.0	-5643274.0
16	15	9	31	429	90.0	-46663.0	-921.0	-5643148.0
16	15	9	31	430	91.0	851.0	-699.0	-5642357.0
16	15	9	31	430	92.0	59568.0	-266.0	-5642354.0
16	15	9	31	430	93.0	100563.0	-2316.0	-5643737.0
16	15	9	31	430	94.0	117027.0	-3967.0	-5643242.0
16	15	9	31	431	95.0	122527.0	-3277.0	-5642459.0
16	15	9	31	431	96.0	122806.0	-832.0	-5642557.0
16	15	9	31	431	97.0	140207.0	-879.0	-5643766.0
16	15	9	31	432	98.0	177976.0	-1136.0	-5643191.0
16	15	9	31	432	99.0	215396.0	-1009.0	-5642376.0
16	15	9	31	432	100.0	248319.0	-1534.0	-5642051.0
16	15	9	31	433	101.0	276260.0	-4285.0	-5643416.0
16	15	9	31	433	102.0	306750.0	-4411.0	-5643203.0
16	15	9	31	433	103.0	340694.0	-2568.0	-5642361.0
16	15	9	31	434	104.0	360444.0	-2193.0	-5642197.0
16	15	9	31	434	105.0	344879.0	-2407.0	-5643632.0
16	15	9	31	435	106.0	294890.0	-2709.0	-5643349.0
16	15	9	31	435	107.0	247030.0	-2662.0	-5642525.0
16	15	9	31	435	108.0	187590.0	-4466.0	-5642402.0
16	15	9	31	436	109.0	-107434.0	-5786.0	-5643628.0
16	15	9	31	436	110.0	-747636.0	-3802.0	-5643211.0
16	15	9	31	436	111.0	-1310232.0	-2295.0	-5642321.0
16	15	9	31	437	112.0	-1384362.0	-2101.0	-5642217.0
16	15	9	31	437	113.0	-1107846.0	-2434.0	-5643464.0
16	15	9	31	437	114.0	-688266.0	-2493.0	-5643127.0
16	15	9	31	438	115.0	-241965.0	-2897.0	-5642279.0
16	15	9	31	438	116.0	41476.0	-5024.0	-5642038.0
16	15	9	31	438	117.0	111706.0	-5631.0	-5643353.0
16	15	9	31	439	118.0	182149.0	-5428.0	-5643221.0
16	15	9	31	439	119.0	335028.0	-4169.0	-5642398.0
16	15	9	31	439	120.0	408814.0	-2064.0	-5641997.0
16	15	9	31	439	121.0	351533.0	-1199.0	-5643344.0
16	15	9	31	440	122.0	240762.0	-1916.0	-5643457.0
16	15	9	31	440	123.0	132403.0	-4067.0	-5642613.0
16	15	9	31	441	124.0	51971.0	-4864.0	-5642621.0
16	15	9	31	442	125.0	30219.0	-2778.0	-5644061.0
16	15	9	31	442	126.0	76054.0	-1955.0	-5643775.0
16	15	9	31	443	127.0	148402.0	-1634.0	-5642914.0
16	15	9	31	443	128.0	188396.0	-1528.0	-5642709.0
16	15	9	31	443	129.0	181391.0	-1512.0	-5643976.0
16	15	9	31	444	130.0	185968.0	-2161.0	-5643656.0
16	15	9	31	444	131.0	203699.0	-4576.0	-5642774.0
16	15	9	31	444	132.0	158748.0	-5219.0	-5642213.0
16	15	9	31	445	133.0	64417.0	-4277.0	-5643161.0
16	15	9	31	445	134.0	-8703.0	-2566.0	-5643177.0
16	15	9	31	446	135.0	-35320.0	-2101.0	-5642372.0
16	15	9	31	446	136.0	-48714.0	-2064.0	-5642415.0
16	15	9	31	446	137.0	-88937.0	-2000.0	-5643745.0
16	15	9	31	574	138.0	-165817.0	-3474.0	-5643231.0
16	15	9	31	574	139.0	-249677.0	-4490.0	-5642451.0
16	15	9	31	575	140.0	-318556.0	-2384.0	-5642474.0
16	15	9	31	575	141.0	-376706.0	-1423.0	-5643813.0
16	15	9	31	575	142.0	-410678.0	-984.0	-5643311.0
16	15	9	31	576	143.0	-408131.0	-1248.0	-5642504.0
16	15	9	31	576	144.0	-383099.0	-1516.0	-5642687.0
16	15	9	31	576	145.0	-351741.0	-1726.0	-5643728.0
16	15	9	31	576	146.0	-314856.0	-4336.0	-5643104.0
16	15	9	31	577	147.0	-291101.0	-4756.0	-5642317.0
16	15	9	31	577	148.0	-285629.0	-3417.0	-5642158.0
16	15	9	31	577	149.0	-286161.0	-1387.0	-5643625.0
16	15	9	31	578	150.0	-296215.0	-1042.0	-5643196.0
16	15	9	31	578	151.0	-310117.0	-298.0	-5642447.0
16	15	9	31	578	152.0	-332287.0	-76.0	-5642154.0
16	15	9	31	578	153.0	-338558.0	-1566.0	-5643512.0
16	15	9	31	579	154.0	-336994.0	-3078.0	-5643149.0
16	15	9	31	579	155.0	-336247.0	-1723.0	-5642506.0
16	15	9	31	579	156.0	-312844.0	-232.0	-5643209.0
16	15	9	31	579	157.0	-270409.0	-192.0	-5643899.0
16	15	9	31	580	158.0	-219542.0	51.0	-5643106.0
16	15	9	31	580	159.0	-165246.0	325.0	-5642422.0
16	15	9	31	580	160.0	-109404.0	186.0	-5643032.0
16	15	9	31	581	161.0	-54551.0	-129.0	-5643896.0
16	15	9	31	581	162.0	5319.0	545.0	-5643104.0
16	15	9	31	581	163.0	68369.0	534.0	-5642374.0
16	15	9	31	582	164.0	121397.0	744.0	-5642733.0
16	15	9	31	582	165.0	170194.0	768.0	-5643561.0
16	15	9	31	583	166.0	205386.0	931.0	-5642807.0
16	15	9	31	583	167.0	219343.0	668.0	-5642144.0
16	15	9	31	583	168.0	236855.0	-1570.0	-5642965.0
16	15	9	31	584	169.0	249023.0	-2492.0	-5643754.0
16	15	9	31	584	170.0	237766.0	-2297.0	-5643002.0
16	15	9	31	584	171.0	219921.0	-1937.0	-5642401.0
16	15	9	31	585	172.0	210046.0	-1845.0	-5643520.0
16	15	9	31	585	173.0	201975.0	-1141.0	-5644050.0
16	15	9	31	585	174.0	182169.0	1171.0	-5643189.0
16	15	9	31	586	175.0	179593.0	769.0	-5642588.0
16	15	9	31	586	176.0	171693.0	435.0	-5643563.0
16	15	9	31	586	177.0	153443.0	2979.0	-5643769.0
16	15	9	31	587	178.0	137849.0	4114.0	-5642932.0
16	15	9	31	587	179.0	117036.0	4671.0	-5642244.0
16	15	9	31	587	180.0	101551.0	5516.0	-5643326.0
16	15	9	31	588	181.0	96215.0	5877.0	-5643736.0
16	15	9	31	588	182.0	95866.0	6168.0	-5642942.0
16	15	9	31	588	183.0	105095.0	4760.0	-5642304.0
16	15	9	31	589	184.0	120734.0	4559.0	-5643426.0
16	15	9	31	589	185.0	129168.0	5321.0	-5643641.0
16	15	9	31	589	186.0	133128.0	8271.0	-5642882.0
16	15	9	31	590	187.0	138886.0	10246.0	-5642424.0
16	15	9	31	590	188.0	138798.0	11857.0	-5643700.0
16	15	9	31	590	189.0	125594.0	12682.0	-5643520.0
16	15	9	31	591	190.0	112977.0	12514.0	-5642731.0
16	15	9	31	591	191.0	103884.0	11706.0	-5642588.0
16	15	9	31	591	192.0	93126.0	13003.0	-5644009.0
16	15	9	31	592	193.0	69329.0	16806.0	-5643561.0
16	15	9	31	592	194.0	48519.0	19202.0	-5642775.0
16	15	9	31	592	195.0	29161.0	20248.0	-5642275.0
16	15	9	31	593	196.0	4321.0	21964.0	-5643707.0
16	15	9	31	593	197.0	-15512.0	23724.0	-5643554.0
16	15	9	31	593	198.0	-40046.0	23653.0	-5642797.0
16	15	9	31	594	199.0	-60442.0	24230.0	-5642248.0
16	15	9	31	594	200.0	-71367.0	26584.0	-5643602.0
16	15	9	31	594	201.0	-80908.0	30473.0	-5643572.0
16	15	9	31	594	202.0	-95145.0	32543.0	-5642831.0
16	15	9	31	595	203.0	-105271.0	34153.0	-5642349.0
16	15	9	31	595	204.0	-110400.0	36380.0	-5643577.0
16	15	9	31	595	205.0	-117794.0	36680.0	-5643378.0
16	15	9	31	596	206.0	-121525.0	36438.0	-5642629.0
16	15	9	31	596	207.0	-120947.0	38162.0	-5642484.0
16	15	9	31	596	208.0	-119949.0	41844.0	-5643837.0
16	15	9	31	597	209.0	-114869.0	44018.0	-5643376.0
16	15	9	31	598	210.0	-106326.0	44880.0	-5642598.0
16	15	9	31	599	211.0	-92867.0	46395.0	-5642124.0
16	15	9	31	599	212.0	-74656.0	47624.0	-5643407.0
16	15	9	31	599	213.0	-61477.0	46721.0	-5643268.0
16	15	9	31	600	214.0	-41644.0	46818.0	-5642455.0
16	15	9	31	600	215.0	-12703.0	48824.0	-5642369.0
16	15	9	31	600	216.0	26972.0	51829.0	-5643719.0
16	15	9	31	601	217.0	57136.0	53316.0	-5643302.0
16	15	9	31	601	218.0	78774.0	54048.0	-5642492.0
16	15	9	31	602	219.0	104674.0	53768.0	-5642397.0
16	15	9	31	602	220.0	120253.0	52065.0	-5643579.0
16	15	9	31	698	221.0	129590.0	48984.0	-5643157.0
16	15	9	31	698	222.0	135741.0	48359.0	-5642343.0
16	15	9	31	698	223.0	142544.0	50057.0	-5642764.0
16	15	9	31	699	224.0	145034.0	49686.0	-5643713.0
16	15	9	31	699	225.0	134027.0	48816.0	-5643065.0
16	15	9	31	699	226.0	111887.0	48203.0	-5642214.0
16	15	9	31	699	227.0	90206.0	46703.0	-5642571.0
16	15	9	31	700	228.0	60574.0	43655.0	-5643729.0
16	15	9	31	700	229.0	25638.0	41816.0	-5643206.0
16	15	9	31	700	230.0	-12035.0	41799.0	-5642368.0
16	15	9	31	701	231.0	-76381.0	42452.0	-5642836.0
16	15	9	31	701	232.0	-255342.0	41314.0	-5643774.0
