16	14	43	23	106	57.0	-452845.0	-252.0	-5805677.0
16	14	43	23	109	58.0	-682321.0	-5855.0	-5806923.0
16	14	43	23	112	59.0	-825366.0	-10277.0	-5806747.0
16	14	43	23	114	60.0	-603914.0	-14947.0	-5806188.0
16	14	43	23	115	61.0	-270376.0	-19261.0	-5805693.0
16	14	43	23	117	62.0	121361.0	-24232.0	-5806466.0
16	14	43	23	118	63.0	428766.0	-27264.0	-5806447.0
16	14	43	23	119	64.0	717994.0	-29529.0	-5805926.0
16	14	43	23	143	65.0	680369.0	-32720.0	-5806421.0
16	14	43	23	144	66.0	598963.0	-35834.0	-5807344.0
16	14	43	23	145	67.0	353390.0	-38336.0	-5806685.0
16	14	43	23	146	68.0	-16327.0	-41677.0	-5806047.0
16	14	43	23	147	69.0	-289202.0	-44512.0	-5805467.0
16	14	43	23	148	70.0	-492611.0	-47450.0	-5806078.0
16	14	43	23	149	71.0	-644840.0	-49337.0	-5806082.0
16	14	43	23	150	72.0	-726403.0	-51371.0	-5805501.0
16	14	43	23	150	73.0	-735348.0	-53850.0	-5805684.0
16	14	43	23	151	74.0	-635359.0	-55312.0	-5806711.0
16	14	43	23	152	75.0	-419770.0	-57084.0	-5806215.0
16	14	43	23	153	76.0	-162891.0	-58946.0	-5805661.0
16	14	43	23	153	77.0	37209.0	-60382.0	-5805517.0
16	14	43	23	155	78.0	219139.0	-60752.0	-5806882.0
16	14	43	23	156	79.0	371136.0	-60402.0	-5806656.0
16	14	43	23	156	80.0	394515.0	-60680.0	-5806065.0
16	14	43	23	184	81.0	406656.0	-61624.0	-5805450.0
16	14	43	23	206	82.0	399078.0	-62020.0	-5805931.0
16	14	43	23	206	83.0	348936.0	-61635.0	-5806145.0
16	14	43	23	206	84.0	307064.0	-61419.0	-5805573.0
16	14	43	23	207	85.0	287395.0	-61670.0	-5805245.0
16	14	43	23	207	86.0	240746.0	-62175.0	-5806470.0
16	14	43	23	207	87.0	193381.0	-62682.0	-5806384.0
16	14	43	23	208	88.0	190268.0	-63467.0	-5805762.0
16	14	43	23	208	89.0	195511.0	-63601.0	-5805126.0
16	14	43	23	208	90.0	205670.0	-63519.0	-5805556.0
16	14	43	23	225	91.0	224910.0	-63863.0	-5805894.0
16	14	43	23	225	92.0	255274.0	-63962.0	-5805352.0
16	14	43	23	225	93.0	285389.0	-64374.0	-5805697.0
16	14	43	23	226	94.0	293075.0	-65551.0	-5806961.0
16	14	43	23	226	95.0	253784.0	-66732.0	-5806409.0
16	14	43	23	226	96.0	172098.0	-67840.0	-5805791.0
16	14	43	23	247	113.0	-412218.0	-96554.0	-5805731.0
16	14	43	23	248	114.0	-383755.0	-99181.0	-5805789.0
16	14	43	23	248	115.0	-352749.0	-100853.0	-5806464.0
16	14	43	23	249	116.0	-322649.0	-102438.0	-5805949.0
16	14	43	23	250	117.0	-267028.0	-104314.0	-5805351.0
16	14	43	23	250	118.0	-225644.0	-105828.0	-5805464.0
16	14	43	23	251	119.0	-178429.0	-106157.0	-5806031.0
16	14	43	23	252	120.0	-65497.0	-107432.0	-5805529.0
16	14	43	23	252	121.0	40569.0	-109232.0	-5804986.0
16	14	43	23	252	122.0	78658.0	-110405.0	-5805906.0
16	14	43	23	262	123.0	83241.0	-111091.0	-5806480.0
16	14	43	23	262	124.0	134273.0	-112500.0	-5805884.0
16	14	43	23	262	125.0	168751.0	-113716.0	-5805486.0
16	14	43	23	263	126.0	161622.0	-114122.0	-5806565.0
16	14	43	23	263	127.0	150312.0	-114506.0	-5806587.0
16	14	43	23	263	135.0	-129819.0	-116765.0	-5806432.0
16	14	43	23	263	136.0	-172869.0	-116832.0	-5806317.0
16	14	43	23	264	137.0	-205655.0	-117821.0	-5805717.0
16	14	43	23	264	138.0	-227325.0	-117731.0	-5805234.0
16	14	43	23	264	139.0	-247987.0	-117427.0	-5806602.0
16	14	43	23	264	140.0	-256527.0	-116207.0	-5806857.0
16	14	43	23	265	141.0	-258462.0	-115583.0	-5806303.0
16	14	43	23	292	142.0	-259242.0	-115364.0	-5805604.0
16	14	43	23	308	143.0	-277112.0	-114416.0	-5806190.0
16	14	43	23	309	144.0	-301092.0	-113166.0	-5806999.0
16	14	43	23	309	145.0	-327581.0	-112890.0	-5806529.0
16	14	43	23	309	146.0	-336358.0	-112054.0	-5805807.0
16	14	43	23	310	147.0	-336634.0	-110962.0	-5805628.0
16	14	43	23	310	148.0	-338766.0	-110146.0	-5806872.0
16	14	43	23	310	149.0	-334136.0	-109037.0	-5806805.0
16	14	43	23	311	150.0	-315621.0	-107871.0	-5806147.0
16	14	43	23	311	151.0	-293401.0	-106682.0	-5805629.0
16	14	43	23	311	152.0	-271261.0	-105043.0	-5806546.0
16	14	43	23	311	153.0	-237477.0	-104123.0	-5807146.0
16	14	43	23	312	154.0	-185922.0	-104110.0	-5806524.0
16	14	43	23	312	155.0	-112259.0	-102804.0	-5805978.0
16	14	43	23	312	156.0	-27506.0	-101430.0	-5806682.0
16	14	43	23	312	158.0	112335.0	-98797.0	-5806647.0
16	14	43	23	313	159.0	150021.0	-97717.0	-5806017.0
16	14	43	23	313	160.0	161203.0	-96191.0	-5805868.0
16	14	43	23	313	161.0	171655.0	-94505.0	-5806953.0
16	14	43	23	313	162.0	184798.0	-92826.0	-5806699.0
16	14	43	23	314	163.0	202986.0	-91861.0	-5805991.0
16	14	43	23	337	164.0	210086.0	-90130.0	-5805917.0
16	14	43	23	337	165.0	202551.0	-88358.0	-5807211.0
16	14	43	23	358	166.0	178709.0	-86718.0	-5807029.0
16	14	43	23	359	167.0	140166.0	-86117.0	-5806334.0
16	14	43	23	359	168.0	103270.0	-84908.0	-5805807.0
16	14	43	23	359	169.0	65478.0	-84716.0	-5806440.0
16	14	43	23	359	170.0	30626.0	-83929.0	-5807069.0
16	14	43	23	360	171.0	3522.0	-82919.0	-5806449.0
16	14	43	23	360	172.0	-16117.0	-81768.0	-5805897.0
16	14	43	23	360	173.0	-29840.0	-80554.0	-5806522.0
16	14	43	23	360	174.0	-45828.0	-80115.0	-5807395.0
16	14	43	23	361	175.0	-55909.0	-78501.0	-5806757.0
16	14	43	23	361	176.0	-70538.0	-77841.0	-5806176.0
16	14	43	23	361	177.0	-89114.0	-77571.0	-5805717.0
16	14	43	23	361	178.0	-105276.0	-76799.0	-5806490.0
16	14	43	23	362	180.0	-151535.0	-74233.0	-5805644.0
16	14	43	23	362	181.0	-180892.0	-73609.0	-5805963.0
16	14	43	23	362	182.0	-191640.0	-73719.0	-5807160.0
16	14	43	23	362	183.0	-179600.0	-72327.0	-5806612.0
16	14	43	23	363	184.0	-178433.0	-70709.0	-5806017.0
16	14	43	23	363	185.0	-175686.0	-69584.0	-5805581.0
16	14	43	23	363	186.0	-157844.0	-69469.0	-5806487.0
16	14	43	23	421	187.0	-115604.0	-68976.0	-5806314.0
16	14	43	23	422	188.0	-58138.0	-68376.0	-5805716.0
16	14	43	23	422	189.0	-1871.0	-67323.0	-5805494.0
16	14	43	23	422	190.0	57015.0	-67377.0	-5806364.0
16	14	43	23	422	191.0	112145.0	-67240.0	-5806018.0
16	14	43	23	423	192.0	177318.0	-66511.0	-5805571.0
16	14	43	23	423	193.0	249116.0	-65797.0	-5806579.0
16	14	43	23	423	194.0	308614.0	-65799.0	-5807050.0
16	14	43	23	423	195.0	357699.0	-65737.0	-5806333.0
16	14	43	23	424	196.0	394633.0	-65866.0	-5805754.0
16	14	43	23	424	197.0	420808.0	-65332.0	-5805347.0
16	14	43	23	424	198.0	432437.0	-64387.0	-5806147.0
16	14	43	23	425	199.0	427465.0	-64663.0	-5805841.0
16	14	43	23	425	200.0	406537.0	-64946.0	-5805319.0
16	14	43	23	425	201.0	366969.0	-64484.0	-5805927.0
16	14	43	23	425	203.0	275279.0	-63344.0	-5806182.0
16	14	43	23	426	204.0	234908.0	-63606.0	-5805639.0
16	14	43	23	426	205.0	195749.0	-63084.0	-5806142.0
16	14	43	23	426	206.0	170373.0	-61973.0	-5807096.0
16	14	43	23	426	207.0	147448.0	-61156.0	-5806478.0
16	14	43	23	427	208.0	100959.0	-60897.0	-5805875.0
16	14	43	23	445	209.0	39370.0	-60700.0	-5805397.0
16	14	43	23	445	210.0	-26143.0	-60709.0	-5806126.0
16	14	43	23	445	211.0	-99659.0	-59765.0	-5805826.0
16	14	43	23	445	212.0	-175616.0	-59335.0	-5805244.0
16	14	43	23	445	213.0	-256144.0	-59164.0	-5805547.0
16	14	43	23	446	214.0	-337235.0	-59391.0	-5806479.0
16	14	43	23	446	215.0	-421746.0	-59224.0	-5805882.0
16	14	43	23	446	216.0	-490288.0	-58556.0	-5805263.0
16	14	43	23	446	217.0	-531947.0	-58636.0	-5805293.0
16	14	43	23	446	218.0	-550657.0	-58349.0	-5806604.0
16	14	43	23	447	219.0	-541521.0	-58474.0	-5806217.0
16	14	43	23	447	220.0	-514404.0	-58224.0	-5805608.0
16	14	43	23	447	221.0	-477801.0	-57317.0	-5805209.0
16	14	43	23	447	222.0	-437380.0	-57063.0	-5806435.0
16	14	43	23	447	223.0	-392413.0	-56598.0	-5806469.0
16	14	43	23	448	225.0	-318724.0	-56449.0	-5805286.0
16	14	43	23	448	226.0	-294135.0	-56860.0	-5806146.0
16	14	43	23	448	227.0	-270915.0	-56861.0	-5806808.0
16	14	43	23	448	228.0	-244479.0	-56003.0	-5806192.0
16	14	43	23	449	229.0	-205967.0	-54954.0	-5805528.0
16	14	43	23	449	230.0	-165529.0	-53667.0	-5805680.0
16	14	43	23	449	231.0	-123741.0	-52974.0	-5806817.0
16	14	43	23	473	232.0	-78031.0	-51850.0	-5806355.0
16	14	43	23	473	233.0	-27302.0	-50937.0	-5805761.0
16	14	43	23	474	234.0	28549.0	-49479.0	-5805525.0
16	14	43	23	474	235.0	76560.0	-49157.0	-5806859.0
16	14	43	23	492	236.0	112617.0	-48047.0	-5806721.0
16	14	43	23	493	237.0	150860.0	-46741.0	-5806097.0
16	14	43	23	493	238.0	195482.0	-45858.0	-5805763.0
16	14	43	23	493	239.0	224693.0	-45030.0	-5807007.0
16	14	43	23	493	240.0	244849.0	-44261.0	-5806899.0
16	14	43	23	494	241.0	268271.0	-43341.0	-5806308.0
16	14	43	23	494	242.0	279550.0	-41502.0	-5805690.0
16	14	43	23	495	243.0	277508.0	-40293.0	-5806682.0
16	14	43	23	495	244.0	270244.0	-39375.0	-5807432.0
16	14	43	23	495	245.0	266157.0	-38228.0	-5806899.0
16	14	43	23	496	246.0	249337.0	-37431.0	-5806159.0
16	14	43	23	496	248.0	181165.0	-35110.0	-5807376.0
16	14	43	23	497	249.0	139545.0	-34687.0	-5807215.0
16	14	43	23	497	250.0	105283.0	-33931.0	-5806520.0
16	14	43	23	498	251.0	72208.0	-33289.0	-5806440.0
16	14	43	23	498	252.0	30194.0	-32442.0	-5807602.0
16	14	43	23	499	253.0	-7487.0	-31322.0	-5807432.0
16	14	43	23	520	254.0	-31363.0	-30758.0	-5806716.0
16	14	43	23	520	255.0	-38262.0	-30101.0	-5806331.0
16	14	43	23	521	0.0	-40221.0	-28808.0	-5807370.0
16	14	43	23	563	1.0	-22953.0	-27826.0	-5807584.0
16	14	43	23	577	2.0	9300.0	-26449.0	-5806869.0
16	14	43	23	577	3.0	43051.0	-25536.0	-5806269.0
16	14	43	23	577	4.0	80428.0	-24609.0	-5806549.0
16	14	43	23	578	5.0	108046.0	-23713.0	-5807641.0
16	14	43	23	578	6.0	115843.0	-22642.0	-5807164.0
16	14	43	23	578	7.0	120521.0	-21394.0	-5806525.0
16	14	43	23	579	8.0	122762.0	-20579.0	-5806657.0
16	14	43	23	579	9.0	114218.0	-19417.0	-5807909.0
16	14	43	23	579	10.0	102194.0	-18503.0	-5807548.0
16	14	43	23	580	11.0	93426.0	-18155.0	-5806902.0
16	14	43	23	580	12.0	77443.0	-17406.0	-5806765.0
16	14	43	23	581	14.0	35619.0	-15139.0	-5807667.0
16	14	43	23	581	15.0	11671.0	-14646.0	-5807011.0
16	14	43	23	581	16.0	-20849.0	-13447.0	-5806461.0
16	14	43	23	582	37.0	296006.0	3381.0	-5806102.0
16	14	43	23	582	38.0	257419.0	3026.0	-5807214.0
16	14	43	23	582	39.0	223750.0	3583.0	-5807081.0
16	14	43	23	583	40.0	192426.0	4446.0	-5806495.0
16	14	43	23	583	41.0	164555.0	5134.0	-5805971.0
16	14	43	23	583	42.0	149383.0	6451.0	-5806991.0
16	14	43	23	608	43.0	144566.0	7009.0	-5807228.0
16	14	43	23	627	44.0	140581.0	7571.0	-5806662.0
16	14	43	23	627	45.0	134884.0	8969.0	-5805976.0
16	14	43	23	627	46.0	118199.0	9384.0	-5806557.0
16	14	43	23	627	47.0	84113.0	9413.0	-5807392.0
16	14	43	23	628	48.0	29243.0	9518.0	-5806854.0
16	14	43	23	628	49.0	-53028.0	9814.0	-5806165.0
16	14	43	23	628	50.0	-148089.0	9806.0	-5806477.0
16	14	43	23	628	51.0	-252513.0	10016.0	-5807476.0
16	14	43	23	629	52.0	-340379.0	10072.0	-5806958.0
16	14	43	23	629	53.0	-401072.0	11104.0	-5806291.0
16	14	43	23	629	54.0	-428666.0	11031.0	-5805767.0
16	14	43	23	629	55.0	-421805.0	11287.0	-5806769.0
16	14	43	23	630	56.0	-381705.0	11829.0	-5807019.0
16	14	43	23	630	57.0	-316311.0	12684.0	-5806409.0
16	14	43	23	630	59.0	-112399.0	13967.0	-5806874.0
16	14	43	23	630	60.0	-13098.0	13847.0	-5807092.0
16	14	43	23	631	61.0	59244.0	13776.0	-5806482.0
16	14	43	23	631	62.0	104688.0	13756.0	-5805826.0
16	14	43	23	631	63.0	125520.0	13834.0	-5806344.0
16	14	43	23	631	64.0	128411.0	14441.0	-5807093.0
16	14	43	23	632	65.0	106058.0	14976.0	-5806551.0
16	14	43	23	651	66.0	75440.0	14901.0	-5805846.0
16	14	43	23	662	67.0	43414.0	15041.0	-5805778.0
16	14	43	23	662	68.0	9384.0	15786.0	-5807057.0
16	14	43	23	662	69.0	-25564.0	15849.0	-5806889.0
16	14	43	23	662	70.0	-54681.0	15839.0	-5806160.0
16	14	43	23	663	71.0	-67570.0	15848.0	-5805706.0
16	14	43	23	663	72.0	-80741.0	15939.0	-5806736.0
16	14	43	23	663	73.0	-78092.0	16196.0	-5807312.0
16	14	43	23	663	74.0	-56109.0	16746.0	-5806609.0
16	14	43	23	663	75.0	-26572.0	16627.0	-5806111.0
16	14	43	23	664	76.0	7230.0	16414.0	-5807024.0
16	14	43	23	664	77.0	32608.0	16499.0	-5807899.0
16	14	43	23	664	78.0	46950.0	16813.0	-5807245.0
16	14	43	23	664	79.0	44884.0	16659.0	-5806716.0
16	14	43	23	665	80.0	38571.0	16426.0	-5807241.0
16	14	43	23	665	82.0	26093.0	16826.0	-5807603.0
16	14	43	23	665	83.0	35101.0	16726.0	-5806961.0
16	14	43	23	665	84.0	51903.0	16973.0	-5806394.0
16	14	43	23	666	85.0	69054.0	17543.0	-5807067.0
16	14	43	23	666	86.0	93333.0	18048.0	-5807245.0
16	14	43	23	666	87.0	117028.0	19286.0	-5806661.0
16	14	43	23	697	88.0	126207.0	19818.0	-5806994.0
16	14	43	23	697	89.0	122818.0	20355.0	-5807957.0
16	14	43	23	697	90.0	119598.0	20884.0	-5807357.0
16	14	43	23	698	91.0	123816.0	20896.0	-5806744.0
16	14	43	23	709	92.0	128351.0	20576.0	-5806639.0
16	14	43	23	710	93.0	137066.0	20783.0	-5807849.0
16	14	43	23	710	94.0	150475.0	20753.0	-5807458.0
16	14	43	23	710	95.0	160588.0	20813.0	-5806831.0
16	14	43	23	710	96.0	174052.0	21074.0	-5806388.0
16	14	43	23	711	97.0	178748.0	20971.0	-5807658.0
16	14	43	23	711	98.0	170379.0	20898.0	-5807827.0
16	14	43	23	711	99.0	151414.0	21024.0	-5807153.0
16	14	43	23	712	100.0	128484.0	21093.0	-5806505.0
16	14	43	23	712	101.0	92488.0	21858.0	-5806448.0
16	14	43	23	712	102.0	48503.0	22183.0	-5807673.0
16	14	43	23	712	104.0	-23758.0	23160.0	-5806721.0
16	14	43	23	713	105.0	-63749.0	21854.0	-5806391.0
16	14	43	23	732	106.0	-94016.0	21764.0	-5807678.0
16	14	43	23	733	107.0	-111049.0	21710.0	-5807634.0
16	14	43	23	733	108.0	-120538.0	21599.0	-5806989.0
16	14	43	23	734	109.0	-130289.0	22150.0	-5806592.0
16	14	43	23	756	110.0	-139894.0	22368.0	-5807844.0
16	14	43	23	756	111.0	-149026.0	22714.0	-5807910.0
16	14	43	23	756	112.0	-145972.0	23533.0	-5807314.0
16	14	43	23	757	113.0	-143847.0	23462.0	-5806673.0
16	14	43	23	757	114.0	-134112.0	23172.0	-5807357.0
16	14	43	23	757	115.0	-117074.0	22975.0	-5807793.0
16	14	43	23	757	116.0	-98626.0	22854.0	-5807243.0
16	14	43	23	758	117.0	-70522.0	22313.0	-5806524.0
16	14	43	23	758	118.0	-33302.0	22945.0	-5806810.0
16	14	43	23	758	119.0	11976.0	23311.0	-5807686.0
16	14	43	23	758	120.0	76098.0	23523.0	-5807252.0
16	14	43	23	759	121.0	167548.0	23684.0	-5806538.0
16	14	43	23	759	122.0	257983.0	23703.0	-5806401.0
16	14	43	23	759	123.0	249644.0	24053.0	-5807747.0
16	14	43	23	759	124.0	95184.0	24156.0	-5807674.0
16	14	43	23	760	126.0	-363731.0	24458.0	-5806601.0
16	14	43	23	760	127.0	-430186.0	24098.0	-5807629.0
16	14	43	23	760	128.0	-363398.0	23744.0	-5807688.0
16	14	43	23	760	129.0	-187356.0	23784.0	-5806992.0
16	14	43	23	761	130.0	13523.0	24120.0	-5806455.0
16	14	43	23	761	131.0	173775.0	24073.0	-5807072.0
16	14	43	23	761	132.0	300278.0	24104.0	-5807851.0
16	14	43	23	787	133.0	434327.0	24740.0	-5807238.0
16	14	43	23	794	134.0	567352.0	25314.0	-5806608.0
16	14	43	23	794	135.0	595901.0	25615.0	-5806739.0
16	14	43	23	794	136.0	487436.0	25229.0	-5808031.0
16	14	43	23	794	137.0	282769.0	24747.0	-5807639.0
16	14	43	23	795	138.0	76165.0	24943.0	-5806935.0
16	14	43	23	795	139.0	-107072.0	25332.0	-5806864.0
16	14	43	23	795	140.0	-298354.0	25672.0	-5807969.0
16	14	43	23	795	141.0	-454184.0	26180.0	-5807651.0
16	14	43	23	796	142.0	-500751.0	26914.0	-5806984.0
16	14	43	23	811	143.0	-377935.0	27616.0	-5806489.0
16	14	43	23	811	144.0	-143924.0	27949.0	-5807235.0
16	14	43	23	812	145.0	52099.0	27678.0	-5807759.0
16	14	43	23	812	146.0	127176.0	28194.0	-5807094.0
16	14	43	23	812	147.0	103769.0	28374.0	-5806455.0
16	14	43	23	812	149.0	26822.0	27720.0	-5807950.0
16	14	43	23	813	150.0	-1822.0	26854.0	-5807462.0
16	14	43	23	813	151.0	-11305.0	26806.0	-5806871.0
16	14	43	23	813	152.0	-796.0	27498.0	-5806284.0
16	14	43	23	813	153.0	21478.0	27759.0	-5807294.0
16	14	43	23	814	154.0	32682.0	27178.0	-5807652.0
16	14	43	23	832	155.0	18832.0	26721.0	-5807058.0
16	14	43	23	846	156.0	-33712.0	27136.0	-5806408.0
16	14	43	23	846	157.0	-118285.0	27798.0	-5807056.0
16	14	43	23	847	158.0	-204978.0	28034.0	-5807486.0
16	14	43	23	847	159.0	-288078.0	27798.0	-5806921.0
16	14	43	23	847	160.0	-355694.0	27517.0	-5806226.0
16	14	43	23	847	161.0	-396394.0	27209.0	-5806777.0
16	14	43	23	848	162.0	-396817.0	26958.0	-5807535.0
16	14	43	23	848	163.0	-362506.0	27183.0	-5806974.0
16	14	43	23	848	164.0	-311453.0	27096.0	-5806303.0
16	14	43	23	848	165.0	-240361.0	26949.0	-5806084.0
16	14	43	23	849	166.0	-150361.0	27506.0	-5807145.0
16	14	43	23	849	167.0	-68817.0	27306.0	-5806989.0
16	14	43	23	849	168.0	-10526.0	27554.0	-5806327.0
16	14	43	23	849	169.0	28960.0	27213.0	-5805987.0
16	14	43	23	850	171.0	58598.0	26049.0	-5807319.0
16	14	43	23	850	172.0	52696.0	26248.0	-5806651.0
16	14	43	23	850	173.0	34354.0	25596.0	-5806064.0
16	14	43	23	850	174.0	11604.0	25937.0	-5806958.0
16	14	43	23	851	175.0	-4579.0	26814.0	-5807708.0
16	14	43	23	863	176.0	-7799.0	27601.0	-5807116.0
16	14	43	23	864	177.0	1937.0	27744.0	-5806502.0
16	14	43	23	881	178.0	35691.0	27767.0	-5807178.0
16	14	43	23	881	179.0	87936.0	28128.0	-5808095.0
16	14	43	23	881	180.0	162648.0	28250.0	-5807596.0
16	14	43	23	882	181.0	245723.0	28299.0	-5806887.0
16	14	43	23	882	182.0	322743.0	28202.0	-5806582.0
16	14	43	23	882	183.0	404767.0	28116.0	-5807641.0
16	14	43	23	882	184.0	487088.0	27858.0	-5807729.0
16	14	43	23	883	185.0	542881.0	27703.0	-5807020.0
16	14	43	23	899	186.0	561329.0	28071.0	-5806751.0
16	14	43	23	899	187.0	541773.0	28087.0	-5808100.0
16	14	43	23	899	188.0	486066.0	28033.0	-5808309.0
16	14	43	23	900	189.0	402691.0	28526.0	-5807583.0
16	14	43	23	900	190.0	294482.0	28419.0	-5807041.0
16	14	43	23	900	191.0	185819.0	27839.0	-5807669.0
16	14	43	23	900	192.0	95733.0	28005.0	-5808521.0
16	14	43	23	901	194.0	1950.0	28440.0	-5807304.0
16	14	43	23	901	195.0	-9892.0	27682.0	-5807027.0
16	14	43	23	901	196.0	3711.0	27166.0	-5808404.0
16	14	43	23	901	197.0	26423.0	27281.0	-5808249.0
16	14	43	23	902	198.0	57906.0	27819.0	-5807616.0
16	14	43	23	916	199.0	74821.0	28376.0	-5807401.0
16	14	43	23	934	200.0	77329.0	28970.0	-5808813.0
16	14	43	23	934	201.0	58111.0	29508.0	-5808678.0
16	14	43	23	935	202.0	35471.0	30564.0	-5808034.0
16	14	43	23	935	203.0	31094.0	30853.0	-5807446.0
16	14	43	23	935	204.0	44318.0	31531.0	-5807812.0
16	14	43	23	935	205.0	66832.0	31863.0	-5808087.0
16	14	43	23	935	206.0	92440.0	32831.0	-5807547.0
16	14	43	23	936	207.0	112013.0	33658.0	-5807347.0
16	14	43	23	936	208.0	86605.0	35529.0	-5808594.0
16	14	43	23	936	209.0	27101.0	37149.0	-5808329.0
16	14	43	23	968	210.0	-46814.0	38906.0	-5807706.0
16	14	43	23	968	211.0	-120037.0	40863.0	-5807002.0
16	14	43	23	977	212.0	-210420.0	42988.0	-5807451.0
16	14	43	23	977	213.0	-300969.0	45893.0	-5808210.0
16	14	43	23	977	214.0	-386583.0	48074.0	-5807616.0
16	14	43	23	978	216.0	-491256.0	53775.0	-5806884.0
16	14	43	23	978	217.0	-505589.0	56566.0	-5808142.0
16	14	43	23	978	218.0	-477724.0	58682.0	-5807795.0
16	14	43	23	978	219.0	-420053.0	62221.0	-5807169.0
16	14	43	23	979	220.0	-321720.0	66083.0	-5807379.0
16	14	43	23	979	221.0	-195193.0	69900.0	-5808672.0
16	14	43	23	979	222.0	-59201.0	73541.0	-5808248.0
16	14	43	23	979	223.0	68282.0	77443.0	-5807642.0
16	14	43	23	980	224.0	169579.0	80851.0	-5807005.0
16	14	43	23	980	225.0	231041.0	83983.0	-5807954.0
16	14	43	23	980	239.0	23458.0	131235.0	-5808878.0
16	14	43	23	980	240.0	4278.0	133049.0	-5808161.0
16	14	43	23	981	241.0	-33201.0	134262.0	-5807540.0
16	14	43	23	981	242.0	-72262.0	136013.0	-5807878.0
16	14	43	23	981	243.0	-106384.0	137929.0	-5809074.0
16	14	43	23	982	244.0	-121538.0	139233.0	-5808604.0
16	14	43	24	12	245.0	-127386.0	141447.0	-5807957.0
16	14	43	24	12	246.0	-123382.0	142566.0	-5807676.0
16	14	43	24	12	247.0	-113849.0	143840.0	-5808766.0
16	14	43	24	27	248.0	-101677.0	144503.0	-5808717.0
16	14	43	24	28	249.0	-92971.0	144777.0	-5808061.0
16	14	43	24	28	250.0	-89206.0	144723.0	-5807634.0
16	14	43	24	28	251.0	-91813.0	144632.0	-5808714.0
16	14	43	24	29	252.0	-91652.0	144227.0	-5809061.0
16	14	43	24	29	253.0	-85943.0	144098.0	-5808421.0
16	14	43	24	29	254.0	-68728.0	143116.0	-5807806.0
16	14	43	24	29	255.0	-26985.0	142268.0	-5808003.0
16	14	43	24	30	0.0	22056.0	141202.0	-5809243.0
16	14	43	24	30	1.0	81164.0	139069.0	-5808792.0
16	14	43	24	30	2.0	144634.0	137448.0	-5808209.0
16	14	43	24	30	3.0	193327.0	136017.0	-5807782.0
16	14	43	24	31	5.0	235469.0	131297.0	-5809131.0
16	14	43	24	31	6.0	247227.0	128194.0	-5808524.0
16	14	43	24	31	7.0	244688.0	125013.0	-5807852.0
16	14	43	24	51	8.0	241872.0	122554.0	-5808642.0
16	14	43	24	52	9.0	243210.0	119696.0	-5809699.0
16	14	43	24	52	10.0	253522.0	116976.0	-5809220.0
16	14	43	24	53	11.0	256123.0	113836.0	-5808527.0
16	14	43	24	77	12.0	251754.0	110781.0	-5809054.0
16	14	43	24	78	13.0	243273.0	107664.0	-5809774.0
16	14	43	24	78	14.0	225229.0	104836.0	-5809282.0
16	14	43	24	78	15.0	202391.0	100899.0	-5808584.0
16	14	43	24	78	16.0	180845.0	97311.0	-5808626.0
16	14	43	24	79	17.0	156256.0	94259.0	-5809844.0
16	14	43	24	79	18.0	127107.0	90506.0	-5809595.0
16	14	43	24	79	19.0	94747.0	86920.0	-5808895.0
16	14	43	24	80	20.0	63406.0	83594.0	-5808399.0
16	14	43	24	80	21.0	33736.0	80141.0	-5809120.0
16	14	43	24	80	22.0	-1835.0	76660.0	-5809564.0
16	14	43	24	80	23.0	-39222.0	73576.0	-5808896.0
16	14	43	24	81	24.0	-71494.0	69644.0	-5808257.0
16	14	43	24	81	25.0	-105327.0	65464.0	-5808669.0
16	14	43	24	81	26.0	-146831.0	61405.0	-5809611.0
16	14	43	24	81	28.0	-269711.0	54839.0	-5808501.0
16	14	43	24	82	29.0	-374315.0	51212.0	-5808934.0
16	14	43	24	82	30.0	-558702.0	47397.0	-5809852.0
16	14	43	24	82	31.0	-826616.0	44412.0	-5809301.0
16	14	43	24	82	32.0	-1051873.0	41824.0	-5808598.0
16	14	43	24	83	33.0	-989906.0	38931.0	-5808502.0
16	14	43	24	102	34.0	-616256.0	35938.0	-5809746.0
16	14	43	24	102	35.0	-96491.0	32247.0	-5809573.0
16	14	43	24	117	36.0	395979.0	29939.0	-5808923.0
16	14	43	24	118	37.0	689416.0	27434.0	-5808422.0
16	14	43	24	118	38.0	784657.0	24786.0	-5809026.0
16	14	43	24	118	39.0	745795.0	22018.0	-5809815.0
16	14	43	24	118	40.0	588021.0	19909.0	-5809161.0
16	14	43	24	119	41.0	370950.0	18186.0	-5808549.0
16	14	43	24	119	42.0	133378.0	15426.0	-5808634.0
16	14	43	24	119	43.0	-99894.0	12936.0	-5809717.0
16	14	43	24	119	44.0	-287992.0	10529.0	-5809209.0
16	14	43	24	120	45.0	-415183.0	8434.0	-5808593.0
16	14	43	24	120	46.0	-467285.0	6469.0	-5808190.0
16	14	43	24	120	47.0	-411449.0	4458.0	-5808981.0
16	14	43	24	121	48.0	-259152.0	2569.0	-5808707.0
16	14	43	24	121	50.0	190064.0	-250.0	-5809030.0
16	14	43	24	121	51.0	373885.0	-1707.0	-5809593.0
16	14	43	24	121	52.0	497811.0	-3385.0	-5808906.0
16	14	43	24	122	53.0	551925.0	-5157.0	-5808344.0
16	14	43	24	122	54.0	536778.0	-6721.0	-5808482.0
16	14	43	24	122	55.0	445129.0	-7467.0	-5809629.0
16	14	43	24	122	56.0	312056.0	-8305.0	-5809125.0
16	14	43	24	147	57.0	176901.0	-8992.0	-5808522.0
16	14	43	24	161	58.0	54609.0	-9388.0	-5807998.0
16	14	43	24	161	59.0	-47318.0	-9549.0	-5808722.0
16	14	43	24	161	60.0	-131431.0	-10851.0	-5808578.0
16	14	43	24	162	61.0	-177345.0	-11272.0	-5808040.0
16	14	43	24	162	62.0	-181075.0	-12721.0	-5808626.0
16	14	43	24	162	63.0	-141261.0	-14391.0	-5809436.0
16	14	43	24	162	64.0	-79334.0	-15374.0	-5808780.0
16	14	43	24	163	65.0	-26919.0	-16364.0	-5808181.0
16	14	43	24	163	66.0	1363.0	-17834.0	-5808112.0
16	14	43	24	163	67.0	17071.0	-19314.0	-5809388.0
16	14	43	24	164	68.0	33061.0	-20509.0	-5808996.0
16	14	43	24	164	69.0	25416.0	-21256.0	-5808423.0
16	14	43	24	164	70.0	9346.0	-22382.0	-5807883.0
16	14	43	24	164	71.0	4014.0	-23556.0	-5808909.0
16	14	43	24	165	73.0	-5827.0	-25246.0	-5808737.0
16	14	43	24	165	74.0	-4307.0	-27019.0	-5808162.0
16	14	43	24	165	75.0	-184.0	-28342.0	-5809004.0
16	14	43	24	166	76.0	-6907.0	-29069.0	-5809347.0
16	14	43	24	166	77.0	-13324.0	-29618.0	-5808760.0
16	14	43	24	166	78.0	-22887.0	-30659.0	-5808211.0
16	14	43	24	193	79.0	-29674.0	-32390.0	-5809056.0
16	14	43	24	211	80.0	-40099.0	-33072.0	-5809057.0
16	14	43	24	211	81.0	-40838.0	-33207.0	-5808465.0
16	14	43	24	212	82.0	-20261.0	-34167.0	-5807916.0
16	14	43	24	212	83.0	20892.0	-35541.0	-5808701.0
16	14	43	24	212	84.0	72493.0	-37090.0	-5808696.0
16	14	43	24	213	85.0	143776.0	-38369.0	-5808146.0
16	14	43	24	213	86.0	226573.0	-39301.0	-5808137.0
16	14	43	24	213	87.0	293873.0	-40565.0	-5809621.0
16	14	43	24	213	88.0	322308.0	-42002.0	-5809283.0
16	14	43	24	214	89.0	316123.0	-43269.0	-5808677.0
16	14	43	24	214	90.0	281101.0	-44077.0	-5808245.0
16	14	43	24	215	91.0	219082.0	-44758.0	-5809036.0
16	14	43	24	215	92.0	139241.0	-46127.0	-5808829.0
16	14	43	24	215	93.0	44693.0	-46929.0	-5808282.0
16	14	43	24	216	95.0	-124474.0	-49098.0	-5809368.0
16	14	43	24	216	96.0	-169587.0	-50264.0	-5808697.0
16	14	43	24	216	97.0	-191220.0	-51595.0	-5808109.0
16	14	43	24	236	98.0	-187948.0	-52445.0	-5807628.0
16	14	43	24	236	99.0	-155699.0	-53395.0	-5808516.0
16	14	43	24	236	100.0	-97159.0	-54148.0	-5808439.0
16	14	43	24	237	101.0	-31970.0	-54659.0	-5807878.0
16	14	43	24	257	102.0	29639.0	-55264.0	-5807919.0
16	14	43	24	257	103.0	81554.0	-55258.0	-5809116.0
16	14	43	24	257	104.0	123722.0	-55289.0	-5808640.0
16	14	43	24	258	105.0	160717.0	-55769.0	-5808057.0
16	14	43	24	258	106.0	174651.0	-56608.0	-5807634.0
16	14	43	24	258	107.0	174686.0	-57137.0	-5808480.0
16	14	43	24	258	108.0	173764.0	-57721.0	-5808314.0
16	14	43	24	259	109.0	166611.0	-57994.0	-5807814.0
16	14	43	24	259	110.0	170281.0	-58159.0	-5808619.0
16	14	43	24	259	111.0	165044.0	-58447.0	-5809414.0
16	14	43	24	260	112.0	153023.0	-59062.0	-5808776.0
16	14	43	24	260	113.0	152285.0	-58814.0	-5808194.0
16	14	43	24	260	114.0	164290.0	-58015.0	-5807936.0
16	14	43	24	260	115.0	167139.0	-58043.0	-5808968.0
16	14	43	24	261	116.0	161702.0	-58257.0	-5808667.0
16	14	43	24	261	118.0	83078.0	-57603.0	-5808299.0
16	14	43	24	261	119.0	24026.0	-57892.0	-5809371.0
16	14	43	24	262	120.0	-24721.0	-57529.0	-5808831.0
16	14	43	24	262	121.0	-66017.0	-56927.0	-5808227.0
16	14	43	24	262	122.0	-103401.0	-56222.0	-5807874.0
16	14	43	24	262	123.0	-124579.0	-55087.0	-5809270.0
16	14	43	24	282	124.0	-131862.0	-54526.0	-5809251.0
16	14	43	24	282	125.0	-129159.0	-53921.0	-5808670.0
16	14	43	24	306	126.0	-111835.0	-53182.0	-5808220.0
16	14	43	24	307	127.0	-82497.0	-52956.0	-5809050.0
16	14	43	24	307	128.0	-53717.0	-52917.0	-5808862.0
16	14	43	24	307	129.0	-14592.0	-52822.0	-5808304.0
16	14	43	24	307	130.0	31927.0	-52399.0	-5808716.0
16	14	43	24	308	131.0	45860.0	-51657.0	-5809786.0
16	14	43	24	308	132.0	30431.0	-51570.0	-5809202.0
16	14	43	24	308	133.0	46599.0	-51195.0	-5808602.0
16	14	43	24	309	134.0	-3329.0	-50534.0	-5807969.0
16	14	43	24	309	135.0	-124439.0	-50701.0	-5808853.0
16	14	43	24	309	136.0	-204526.0	-50710.0	-5809518.0
16	14	43	24	309	137.0	-229321.0	-50279.0	-5808966.0
16	14	43	24	310	138.0	-235413.0	-49812.0	-5808298.0
16	14	43	24	310	140.0	-237242.0	-49142.0	-5809686.0
16	14	43	24	310	141.0	-219947.0	-49107.0	-5809231.0
16	14	43	24	310	142.0	-186316.0	-49350.0	-5808567.0
16	14	43	24	311	143.0	-137496.0	-49122.0	-5808446.0
16	14	43	24	311	144.0	-93776.0	-48183.0	-5809662.0
16	14	43	24	311	145.0	-67967.0	-47043.0	-5809461.0
16	14	43	24	336	146.0	-78195.0	-47012.0	-5808784.0
16	14	43	24	372	147.0	-106180.0	-46392.0	-5808119.0
16	14	43	24	418	148.0	-123534.0	-45937.0	-5808576.0
16	14	43	24	418	149.0	-126340.0	-45469.0	-5809069.0
16	14	43	24	428	150.0	-127876.0	-45547.0	-5808480.0
16	14	43	24	428	151.0	-113252.0	-45395.0	-5807842.0
16	14	43	24	429	152.0	-89301.0	-45533.0	-5808510.0
16	14	43	24	429	153.0	-81419.0	-46052.0	-5809184.0
16	14	43	24	429	154.0	-74331.0	-46593.0	-5808642.0
16	14	43	24	430	155.0	-47943.0	-45362.0	-5807994.0
16	14	43	24	430	156.0	11758.0	-45151.0	-5808301.0
16	14	43	24	430	157.0	96211.0	-45293.0	-5809522.0
16	14	43	24	430	158.0	313238.0	-45119.0	-5809179.0
16	14	43	24	431	159.0	455442.0	-45349.0	-5808479.0
16	14	43	24	431	160.0	166141.0	-44395.0	-5808150.0
16	14	43	24	431	163.0	-1528.0	-43160.0	-5808666.0
16	14	43	24	432	185.0	-228555.0	-39524.0	-5808194.0
16	14	43	24	432	207.0	-239105.0	-31760.0	-5809422.0
16	14	43	24	432	208.0	-253519.0	-30726.0	-5808965.0
16	14	43	24	459	209.0	-260286.0	-31080.0	-5808479.0
16	14	43	24	459	210.0	-244087.0	-30463.0	-5809457.0
16	14	43	24	460	211.0	-218797.0	-29737.0	-5809894.0
16	14	43	24	460	212.0	-153776.0	-29271.0	-5809202.0
16	14	43	24	461	213.0	-29724.0	-28586.0	-5808608.0
16	14	43	24	492	214.0	127029.0	-28402.0	-5808324.0
16	14	43	24	492	215.0	270697.0	-27682.0	-5809298.0
16	14	43	24	493	216.0	389326.0	-26496.0	-5808991.0
16	14	43	24	493	217.0	506379.0	-25936.0	-5808427.0
16	14	43	24	493	218.0	588017.0	-25246.0	-5809054.0
16	14	43	24	493	219.0	638984.0	-25680.0	-5809916.0
16	14	43	24	494	220.0	660227.0	-24900.0	-5809308.0
16	14	43	24	494	221.0	633086.0	-24779.0	-5808749.0
16	14	43	24	494	222.0	558365.0	-24242.0	-5809265.0
16	14	43	24	495	223.0	413388.0	-24207.0	-5810163.0
16	14	43	24	495	224.0	232209.0	-23879.0	-5809541.0
16	14	43	24	495	225.0	29309.0	-23972.0	-5808939.0
16	14	43	24	496	226.0	-167982.0	-23756.0	-5808616.0
16	14	43	24	496	227.0	-340395.0	-23167.0	-5809511.0
16	14	43	24	496	228.0	-472766.0	-22496.0	-5809144.0
16	14	43	24	496	230.0	-606479.0	-20717.0	-5808678.0
16	14	43	24	497	231.0	-618911.0	-19914.0	-5809980.0
16	14	43	24	497	232.0	-595921.0	-19567.0	-5809522.0
16	14	43	24	497	233.0	-557404.0	-18999.0	-5808948.0
16	14	43	24	498	234.0	-505710.0	-18659.0	-5808617.0
16	14	43	24	498	235.0	-450237.0	-18065.0	-5809971.0
16	14	43	24	525	236.0	-390994.0	-16997.0	-5809889.0
16	14	43	24	525	237.0	-316889.0	-16329.0	-5809289.0
16	14	43	24	525	238.0	-248249.0	-14999.0	-5808713.0
16	14	43	24	526	239.0	-190764.0	-14477.0	-5809718.0
16	14	43	24	526	240.0	-148089.0	-14371.0	-5810077.0
16	14	43	24	526	241.0	-118740.0	-13984.0	-5809502.0
16	14	43	24	527	242.0	-100057.0	-13672.0	-5808782.0
16	14	43	24	527	243.0	-84999.0	-13733.0	-5808961.0
16	14	43	24	527	244.0	-67722.0	-13321.0	-5809942.0
16	14	43	24	527	245.0	-43772.0	-13027.0	-5809526.0
16	14	43	24	528	246.0	-196.0	-12371.0	-5808834.0
16	14	43	24	528	247.0	61659.0	-11774.0	-5808451.0
16	14	43	24	528	248.0	171496.0	-11606.0	-5809592.0
16	14	43	24	528	249.0	323095.0	-11641.0	-5809807.0
16	14	43	24	529	250.0	471518.0	-10582.0	-5809144.0
16	14	43	24	529	252.0	707350.0	-8964.0	-5809902.0
16	14	43	24	529	253.0	787793.0	-8480.0	-5810294.0
16	14	43	24	530	254.0	837389.0	-8930.0	-5809629.0
16	14	43	24	530	255.0	861521.0	-8397.0	-5809027.0
16	14	43	24	530	0.0	857884.0	-8317.0	-5809536.0
16	14	43	24	530	1.0	801247.0	-7094.0	-5810657.0
16	14	43	24	531	2.0	695673.0	-6473.0	-5810120.0
16	14	43	24	558	3.0	549124.0	-5717.0	-5809433.0
16	14	43	24	559	4.0	381173.0	-4588.0	-5809068.0
16	14	43	24	559	5.0	200326.0	-3502.0	-5810190.0
16	14	43	24	560	6.0	31833.0	-2989.0	-5810259.0
16	14	43	24	560	7.0	-109076.0	-3328.0	-5809544.0
16	14	43	24	560	8.0	-227197.0	-3519.0	-5808925.0
16	14	43	24	561	9.0	-328802.0	-3524.0	-5808835.0
16	14	43	24	561	10.0	-421851.0	-3856.0	-5809467.0
16	14	43	24	561	11.0	-489757.0	-3408.0	-5808993.0
16	14	43	24	562	12.0	-534682.0	-2884.0	-5808706.0
16	14	43	24	562	13.0	-556508.0	-2611.0	-5810079.0
16	14	43	24	562	14.0	-552435.0	-1680.0	-5810101.0
16	14	43	24	589	15.0	-502177.0	-1584.0	-5809439.0
16	14	43	24	589	16.0	-399755.0	-1424.0	-5808856.0
16	14	43	24	590	17.0	-265972.0	-841.0	-5808983.0
16	14	43	24	590	19.0	-11701.0	-455.0	-5809266.0
16	14	43	24	590	20.0	96709.0	-577.0	-5808669.0
16	14	43	24	591	21.0	184381.0	-296.0	-5809271.0
16	14	43	24	591	22.0	212522.0	71.0	-5809982.0
16	14	43	24	591	23.0	187790.0	431.0	-5809363.0
16	14	43	24	592	24.0	147130.0	998.0	-5808739.0
16	14	43	24	621	25.0	75051.0	1061.0	-5808727.0
16	14	43	24	621	26.0	-25666.0	1806.0	-5809572.0
16	14	43	24	622	27.0	-121057.0	3058.0	-5809116.0
16	14	43	24	622	28.0	-201955.0	3432.0	-5808749.0
16	14	43	24	622	29.0	-255611.0	3210.0	-5810004.0
16	14	43	24	623	30.0	-282784.0	3376.0	-5810102.0
16	14	43	24	623	31.0	-291147.0	3676.0	-5809432.0
16	14	43	24	623	32.0	-269184.0	4324.0	-5808864.0
16	14	43	24	624	33.0	-228547.0	3713.0	-5809409.0
16	14	43	24	624	34.0	-164989.0	4157.0	-5810095.0
16	14	43	24	624	35.0	-87196.0	4736.0	-5809432.0
16	14	43	24	625	36.0	-5571.0	5278.0	-5808858.0
16	14	43	24	625	37.0	74475.0	5432.0	-5808638.0
16	14	43	24	625	38.0	139719.0	6068.0	-5809808.0
16	14	43	24	626	39.0	199359.0	7046.0	-5809507.0
16	14	43	24	626	41.0	324264.0	6846.0	-5808541.0
16	14	43	24	626	42.0	341108.0	6521.0	-5809609.0
16	14	43	24	626	43.0	342187.0	6234.0	-5809484.0
16	14	43	24	627	44.0	328661.0	6301.0	-5808901.0
16	14	43	24	627	45.0	302071.0	6598.0	-5808399.0
16	14	43	24	627	46.0	265897.0	6396.0	-5809091.0
16	14	43	24	628	47.0	222333.0	6831.0	-5808862.0
16	14	43	24	653	48.0	194482.0	7589.0	-5808309.0
16	14	43	24	653	49.0	160514.0	8139.0	-5808855.0
16	14	43	24	654	50.0	124203.0	9023.0	-5809584.0
16	14	43	24	654	51.0	89142.0	9314.0	-5808876.0
16	14	43	24	655	52.0	50096.0	9418.0	-5808270.0
16	14	43	24	687	53.0	4282.0	9391.0	-5807783.0
16	14	43	24	719	54.0	-49210.0	9080.0	-5808703.0
16	14	43	24	719	55.0	-111351.0	9046.0	-5808623.0
16	14	43	24	720	56.0	-175245.0	9458.0	-5808017.0
16	14	43	24	720	57.0	-227296.0	9384.0	-5808252.0
16	14	43	24	720	58.0	-262537.0	10098.0	-5809662.0
16	14	43	24	720	59.0	-274817.0	10519.0	-5809206.0
16	14	43	24	721	60.0	-272378.0	10966.0	-5808600.0
16	14	43	24	721	61.0	-253687.0	10644.0	-5808221.0
16	14	43	24	721	62.0	-218181.0	10774.0	-5809121.0
16	14	43	24	722	64.0	-105667.0	10523.0	-5808306.0
16	14	43	24	722	65.0	-29585.0	10445.0	-5808542.0
16	14	43	24	722	66.0	57251.0	10860.0	-5809617.0
16	14	43	24	722	67.0	137825.0	11608.0	-5809064.0
16	14	43	24	723	68.0	188039.0	11854.0	-5808474.0
16	14	43	24	723	86.0	-191816.0	15291.0	-5808334.0
16	14	43	24	723	87.0	14746.0	14711.0	-5808560.0
16	14	43	24	724	88.0	190087.0	14249.0	-5807998.0
16	14	43	24	724	89.0	335156.0	14077.0	-5808021.0
16	14	43	24	724	90.0	475894.0	13894.0	-5809246.0
16	14	43	24	725	91.0	627639.0	14274.0	-5808847.0
16	14	43	24	725	92.0	731953.0	14505.0	-5808261.0
16	14	43	24	754	93.0	768356.0	14289.0	-5808117.0
16	14	43	24	754	94.0	737293.0	14442.0	-5809481.0
16	14	43	24	754	95.0	656461.0	15354.0	-5809236.0
16	14	43	24	755	96.0	527073.0	15152.0	-5808592.0
16	14	43	24	755	97.0	332122.0	14613.0	-5808234.0
16	14	43	24	755	98.0	84566.0	14444.0	-5809406.0
16	14	43	24	756	99.0	-182291.0	14793.0	-5809257.0
16	14	43	24	756	100.0	-382549.0	15183.0	-5808539.0
16	14	43	24	756	101.0	-451146.0	15152.0	-5807902.0
16	14	43	24	756	102.0	-397379.0	15118.0	-5807941.0
16	14	43	24	757	103.0	-256664.0	14733.0	-5808612.0
16	14	43	24	757	104.0	-64110.0	14743.0	-5808129.0
16	14	43	24	757	105.0	139428.0	15009.0	-5807586.0
16	14	43	24	757	106.0	301801.0	14886.0	-5808504.0
16	14	43	24	758	107.0	393702.0	14676.0	-5809309.0
16	14	43	24	758	109.0	292563.0	14381.0	-5808084.0
16	14	43	24	758	110.0	127959.0	14008.0	-5808436.0
16	14	43	24	758	111.0	-48756.0	14103.0	-5809384.0
16	14	43	24	759	112.0	-198595.0	14091.0	-5808848.0
16	14	43	24	759	113.0	-296448.0	14430.0	-5808198.0
16	14	43	24	759	114.0	-334424.0	14558.0	-5808227.0
16	14	43	24	791	115.0	-305959.0	14846.0	-5809386.0
16	14	43	24	792	116.0	-221922.0	14979.0	-5808980.0
16	14	43	24	792	117.0	-110186.0	15357.0	-5808382.0
16	14	43	24	793	118.0	4019.0	15373.0	-5807779.0
16	14	43	24	793	119.0	104901.0	15152.0	-5808674.0
16	14	43	24	793	120.0	184605.0	14669.0	-5808972.0
16	14	43	24	793	121.0	235357.0	15386.0	-5808407.0
16	14	43	24	794	122.0	245508.0	15689.0	-5807810.0
16	14	43	24	794	123.0	218164.0	16024.0	-5808823.0
16	14	43	24	795	124.0	164005.0	16071.0	-5809371.0
16	14	43	24	795	125.0	102149.0	16103.0	-5808787.0
16	14	43	24	795	126.0	33871.0	15786.0	-5808091.0
16	14	43	24	795	127.0	-41720.0	15394.0	-5808726.0
16	14	43	24	796	128.0	-109152.0	15299.0	-5809843.0
16	14	43	24	796	129.0	-166407.0	14888.0	-5809380.0
16	14	43	24	796	131.0	-235475.0	14529.0	-5808134.0
16	14	43	24	796	132.0	-243989.0	14073.0	-5808989.0
16	14	43	24	797	133.0	-226037.0	13404.0	-5809589.0
16	14	43	24	797	134.0	-194449.0	13428.0	-5808913.0
16	14	43	24	797	135.0	-143608.0	14245.0	-5808409.0
16	14	43	24	798	136.0	-80878.0	14370.0	-5809159.0
16	14	43	24	798	137.0	-22212.0	14587.0	-5809858.0
16	14	43	24	829	138.0	32424.0	15073.0	-5809210.0
16	14	43	24	829	139.0	75128.0	15414.0	-5808635.0
16	14	43	24	829	140.0	100190.0	16264.0	-5809161.0
16	14	43	24	830	141.0	106875.0	16068.0	-5810059.0
16	14	43	24	830	142.0	94761.0	16058.0	-5809456.0
16	14	43	24	830	143.0	75316.0	16156.0	-5808841.0
16	14	43	24	867	144.0	59547.0	15986.0	-5808633.0
16	14	43	24	868	145.0	43670.0	15979.0	-5809997.0
16	14	43	24	868	146.0	16756.0	16217.0	-5809856.0
16	14	43	24	869	147.0	-6281.0	16606.0	-5809144.0
16	14	43	24	869	148.0	-21961.0	16932.0	-5808492.0
16	14	43	24	869	149.0	-29242.0	17463.0	-5808693.0
16	14	43	24	870	150.0	-23832.0	17716.0	-5809949.0
16	14	43	24	870	151.0	-13384.0	17888.0	-5809482.0
16	14	43	24	870	152.0	-1328.0	17672.0	-5808889.0
16	14	43	24	871	154.0	16866.0	16548.0	-5809851.0
16	14	43	24	871	155.0	30872.0	15586.0	-5809801.0
16	14	43	24	871	156.0	48276.0	15864.0	-5809219.0
16	14	43	24	871	157.0	57822.0	16194.0	-5808959.0
16	14	43	24	872	158.0	47575.0	16354.0	-5810256.0
16	14	43	24	872	159.0	31299.0	16698.0	-5810044.0
16	14	43	24	872	160.0	19385.0	17009.0	-5809456.0
16	14	43	24	873	161.0	29182.0	17778.0	-5808866.0
16	14	43	24	873	162.0	37632.0	18505.0	-5809900.0
16	14	43	24	873	163.0	35855.0	18964.0	-5810218.0
16	14	43	24	874	164.0	32063.0	19791.0	-5809656.0
16	14	43	24	874	165.0	31151.0	20201.0	-5808972.0
16	14	43	24	874	166.0	15623.0	21166.0	-5809306.0
16	14	43	24	875	167.0	-18291.0	22038.0	-5810286.0
16	14	43	24	875	168.0	-54672.0	22550.0	-5809832.0
16	14	43	24	875	169.0	-100597.0	23041.0	-5809129.0
16	14	43	24	876	170.0	-148448.0	24293.0	-5808844.0
16	14	43	24	876	171.0	-185917.0	25967.0	-5810062.0
16	14	43	24	876	172.0	-206302.0	27246.0	-5810097.0
16	14	43	24	877	173.0	-202311.0	28599.0	-5809411.0
16	14	43	24	877	174.0	-193941.0	30735.0	-5808937.0
16	14	43	24	877	176.0	-190098.0	35216.0	-5810140.0
16	14	43	24	907	177.0	-172076.0	36761.0	-5809444.0
16	14	43	24	907	178.0	-134574.0	38813.0	-5808836.0
16	14	43	24	907	179.0	-79335.0	41574.0	-5809196.0
16	14	43	24	908	180.0	-16689.0	44449.0	-5810368.0
16	14	43	24	908	181.0	40674.0	46985.0	-5809909.0
16	14	43	24	951	182.0	85374.0	48658.0	-5809243.0
16	14	43	24	951	183.0	119007.0	51233.0	-5809062.0
16	14	43	24	951	184.0	139424.0	54131.0	-5810297.0
16	14	43	24	952	185.0	147884.0	56380.0	-5810172.0
16	14	43	24	952	186.0	130303.0	58461.0	-5809452.0
16	14	43	24	952	187.0	101818.0	60588.0	-5809063.0
16	14	43	24	953	188.0	87249.0	62123.0	-5810182.0
16	14	43	24	953	189.0	91081.0	63941.0	-5810409.0
16	14	43	24	953	190.0	98896.0	65645.0	-5809716.0
16	14	43	24	953	191.0	105491.0	67771.0	-5809154.0
16	14	43	24	954	192.0	117622.0	69898.0	-5808876.0
16	14	43	24	954	193.0	124050.0	71386.0	-5809536.0
16	14	43	24	954	194.0	123237.0	72921.0	-5809079.0
16	14	43	24	955	195.0	131282.0	74227.0	-5808660.0
16	14	43	24	955	196.0	146386.0	75364.0	-5809803.0
16	14	43	24	955	199.0	199211.0	78556.0	-5808767.0
16	14	43	24	956	200.0	195659.0	78564.0	-5809044.0
16	14	43	24	956	201.0	181351.0	79121.0	-5810163.0
16	14	43	24	956	202.0	153152.0	80086.0	-5809604.0
16	14	43	24	957	203.0	121747.0	80951.0	-5809028.0
16	14	43	24	957	204.0	86211.0	81081.0	-5809317.0
16	14	43	24	996	205.0	53264.0	81203.0	-5810466.0
16	14	43	24	996	206.0	30298.0	81739.0	-5809909.0
16	14	43	24	996	207.0	9198.0	81581.0	-5809305.0
16	14	43	24	997	208.0	-6786.0	80587.0	-5808805.0
16	14	43	24	997	209.0	-25472.0	80323.0	-5809577.0
16	14	43	24	997	210.0	-48683.0	80479.0	-5809443.0
16	14	43	24	998	211.0	-78559.0	80377.0	-5808830.0
16	14	43	24	998	212.0	-107669.0	79584.0	-5808344.0
16	14	43	24	998	213.0	-125111.0	78011.0	-5809088.0
16	14	43	24	998	214.0	-126309.0	76526.0	-5808853.0
16	14	43	24	999	215.0	-118097.0	74884.0	-5808389.0
16	14	43	24	999	216.0	-115219.0	73281.0	-5809295.0
16	14	43	24	999	217.0	-115843.0	71999.0	-5809755.0
16	14	43	25	0	218.0	-122492.0	70631.0	-5809052.0
16	14	43	25	0	219.0	-139162.0	68626.0	-5808534.0
16	14	43	25	0	221.0	-183274.0	64902.0	-5810032.0
16	14	43	25	0	222.0	-189151.0	62505.0	-5809411.0
16	14	43	25	1	223.0	-183259.0	60379.0	-5808822.0
16	14	43	25	1	224.0	-155299.0	58939.0	-5808651.0
16	14	43	25	1	225.0	-103167.0	57257.0	-5809975.0
16	14	43	25	2	226.0	-26217.0	55303.0	-5809684.0
16	14	43	25	2	227.0	55682.0	53391.0	-5809079.0
16	14	43	25	2	228.0	142448.0	51403.0	-5808498.0
16	14	43	25	40	229.0	224123.0	50809.0	-5809042.0
16	14	43	25	40	230.0	292577.0	49104.0	-5809147.0
16	14	43	25	41	231.0	351509.0	47064.0	-5808579.0
16	14	43	25	41	232.0	398530.0	45388.0	-5808346.0
16	14	43	25	41	233.0	413806.0	43530.0	-5809717.0
16	14	43	25	42	234.0	383343.0	41082.0	-5809576.0
16	14	43	25	42	235.0	291471.0	39198.0	-5808999.0
16	14	43	25	42	236.0	125744.0	37214.0	-5808581.0
16	14	43	25	42	237.0	-146792.0	35188.0	-5809751.0
16	14	43	25	43	238.0	-516630.0	32943.0	-5809705.0
16	14	43	25	43	239.0	-790900.0	30388.0	-5809076.0
16	14	43	25	43	240.0	-747763.0	28389.0	-5808481.0
16	14	43	25	44	241.0	-389435.0	26368.0	-5808969.0
16	14	43	25	44	243.0	624180.0	22216.0	-5808671.0
16	14	43	25	44	244.0	887209.0	20744.0	-5808062.0
16	14	43	25	44	245.0	929635.0	18348.0	-5808759.0
16	14	43	25	45	246.0	806007.0	16869.0	-5809317.0
16	14	43	25	45	247.0	538626.0	15588.0	-5808701.0
16	14	43	25	45	248.0	224322.0	14414.0	-5808056.0
16	14	43	25	46	249.0	-64622.0	13053.0	-5808523.0
16	14	43	25	84	250.0	-314256.0	11861.0	-5808910.0
16	14	43	25	84	251.0	-500850.0	10966.0	-5808354.0
16	14	43	25	84	252.0	-620916.0	10512.0	-5808155.0
16	14	43	25	85	253.0	-682437.0	9225.0	-5809481.0
16	14	43	25	85	254.0	-620496.0	8034.0	-5809224.0
16	14	43	25	85	255.0	-501047.0	6468.0	-5808629.0
16	14	43	25	86	0.0	-416989.0	5199.0	-5808059.0
16	14	43	25	86	1.0	-316055.0	4287.0	-5808535.0
16	14	43	25	86	2.0	-201731.0	3149.0	-5808718.0
16	14	43	25	87	3.0	-121044.0	2039.0	-5808142.0
16	14	43	25	87	4.0	-77334.0	1119.0	-5807845.0
16	14	43	25	87	5.0	-68010.0	248.0	-5809260.0
16	14	43	25	128	6.0	-74105.0	-741.0	-5809249.0
16	14	43	25	128	7.0	-39869.0	-1001.0	-5808629.0
16	14	43	25	129	8.0	45906.0	-1982.0	-5808031.0
16	14	43	25	129	10.0	173426.0	-2655.0	-5808892.0
16	14	43	25	129	11.0	170581.0	-3909.0	-5808322.0
16	14	43	25	130	12.0	268203.0	-4879.0	-5808516.0
16	14	43	25	130	13.0	354640.0	-5410.0	-5809827.0
16	14	43	25	130	14.0	353800.0	-5354.0	-5809370.0
16	14	43	25	130	15.0	302963.0	-4882.0	-5808777.0
16	14	43	25	131	16.0	231229.0	-4636.0	-5808167.0
16	14	43	25	131	17.0	155648.0	-5396.0	-5808824.0
16	14	43	25	131	18.0	74858.0	-5941.0	-5809006.0
16	14	43	25	132	19.0	10598.0	-6612.0	-5808403.0
16	14	43	25	132	20.0	-16704.0	-7531.0	-5807967.0
16	14	43	25	132	21.0	-24462.0	-8301.0	-5809199.0
16	14	43	25	132	32.0	578361.0	-13496.0	-5808291.0
16	14	43	25	133	33.0	760754.0	-14827.0	-5809514.0
16	14	43	25	133	34.0	906146.0	-16407.0	-5809457.0
16	14	43	25	133	35.0	993573.0	-17169.0	-5808804.0
16	14	43	25	134	36.0	988831.0	-17336.0	-5808192.0
16	14	43	25	134	37.0	918275.0	-17528.0	-5808361.0
16	14	43	25	134	38.0	811373.0	-17615.0	-5808995.0
16	14	43	25	182	39.0	680684.0	-17849.0	-5808461.0
16	14	43	25	182	40.0	540478.0	-18361.0	-5807856.0
16	14	43	25	183	41.0	389683.0	-18316.0	-5808572.0
16	14	43	25	183	42.0	240028.0	-18519.0	-5809194.0
16	14	43	25	183	43.0	113029.0	-18535.0	-5808613.0
16	14	43	25	184	44.0	2216.0	-19082.0	-5808002.0
16	14	43	25	184	45.0	-92792.0	-19776.0	-5808625.0
16	14	43	25	184	46.0	-190395.0	-20507.0	-5809347.0
16	14	43	25	185	47.0	-282947.0	-21219.0	-5808742.0
16	14	43	25	185	48.0	-366837.0	-22021.0	-5808144.0
16	14	43	25	185	49.0	-445962.0	-22256.0	-5808387.0
16	14	43	25	185	50.0	-527207.0	-22699.0	-5808854.0
16	14	43	25	186	51.0	-612772.0	-23056.0	-5808233.0
16	14	43	25	186	52.0	-679189.0	-22823.0	-5807582.0
16	14	43	25	186	53.0	-736976.0	-22730.0	-5807710.0
16	14	43	25	186	55.0	-800352.0	-23084.0	-5807796.0
16	14	43	25	187	56.0	-792258.0	-23713.0	-5807212.0
16	14	43	25	187	57.0	-740917.0	-23854.0	-5807732.0
16	14	43	25	187	58.0	-662509.0	-23854.0	-5808000.0
16	14	43	25	187	59.0	-558381.0	-23872.0	-5807506.0
16	14	43	25	188	60.0	-428688.0	-23386.0	-5808200.0
16	14	43	25	188	61.0	-286954.0	-23412.0	-5809131.0
16	14	43	25	188	62.0	-155276.0	-23533.0	-5808523.0
16	14	43	25	188	63.0	-50910.0	-22458.0	-5807939.0
16	14	43	25	189	64.0	28021.0	-22603.0	-5807702.0
16	14	43	25	189	65.0	79109.0	-22952.0	-5809032.0
16	14	43	25	189	66.0	103721.0	-22547.0	-5808856.0
16	14	43	25	190	67.0	105436.0	-22591.0	-5808181.0
16	14	43	25	190	68.0	91617.0	-22241.0	-5807541.0
16	14	43	25	190	69.0	59767.0	-22134.0	-5807795.0
16	14	43	25	191	70.0	27666.0	-22567.0	-5808339.0
16	14	43	25	191	71.0	-4860.0	-23052.0	-5807797.0
16	14	43	25	191	72.0	-25142.0	-23079.0	-5807174.0
16	14	43	25	191	73.0	-24052.0	-22614.0	-5807523.0
16	14	43	25	233	74.0	-7354.0	-22615.0	-5807978.0
16	14	43	25	234	75.0	11439.0	-22123.0	-5807489.0
16	14	43	25	234	77.0	69920.0	-21601.0	-5808935.0
16	14	43	25	235	78.0	109151.0	-21631.0	-5808377.0
16	14	43	25	235	79.0	132040.0	-22139.0	-5807772.0
16	14	43	25	235	80.0	148829.0	-21453.0	-5807657.0
16	14	43	25	236	81.0	167963.0	-21191.0	-5809021.0
16	14	43	25	236	82.0	180464.0	-21042.0	-5808795.0
16	14	43	25	236	83.0	175606.0	-20884.0	-5808104.0
16	14	43	25	237	84.0	162853.0	-20330.0	-5807461.0
16	14	43	25	237	85.0	148679.0	-20095.0	-5807797.0
16	14	43	25	237	86.0	133509.0	-19021.0	-5809018.0
16	14	43	25	238	87.0	127169.0	-18294.0	-5808529.0
16	14	43	25	238	88.0	139377.0	-18331.0	-5807911.0
16	14	43	25	238	89.0	165937.0	-18681.0	-5807515.0
16	14	43	25	239	90.0	183897.0	-18857.0	-5808666.0
16	14	43	25	239	91.0	202587.0	-18516.0	-5808556.0
16	14	43	25	239	92.0	216896.0	-18432.0	-5807939.0
16	14	43	25	239	93.0	232898.0	-18216.0	-5807466.0
16	14	43	25	240	94.0	242652.0	-17327.0	-5808683.0
16	14	43	25	240	95.0	241918.0	-17264.0	-5808829.0
16	14	43	25	292	96.0	227906.0	-17171.0	-5808234.0
16	14	43	25	293	97.0	192921.0	-16867.0	-5807601.0
16	14	43	25	293	98.0	150886.0	-16740.0	-5808424.0
16	14	43	25	293	100.0	59574.0	-16921.0	-5808449.0
16	14	43	25	293	101.0	18680.0	-17686.0	-5807732.0
16	14	43	25	293	102.0	-22166.0	-18166.0	-5807921.0
16	14	43	25	294	103.0	-61093.0	-17538.0	-5809187.0
16	14	43	25	294	104.0	-83569.0	-17417.0	-5808937.0
16	14	43	25	294	105.0	-93621.0	-17292.0	-5808215.0
16	14	43	25	295	106.0	-88937.0	-17291.0	-5807972.0
16	14	43	25	295	107.0	-91394.0	-16806.0	-5809132.0
16	14	43	25	295	108.0	-109321.0	-15837.0	-5809147.0
16	14	43	25	295	109.0	-125243.0	-15804.0	-5808439.0
16	14	43	25	296	110.0	-130236.0	-16639.0	-5808067.0
16	14	43	25	296	111.0	-142055.0	-16808.0	-5809062.0
16	14	43	25	296	112.0	-162411.0	-17307.0	-5809262.0
16	14	43	25	296	113.0	-186138.0	-17990.0	-5808551.0
16	14	43	25	296	114.0	-199043.0	-18699.0	-5807928.0
16	14	43	25	297	115.0	-197414.0	-19089.0	-5808247.0
16	14	43	25	297	116.0	-177009.0	-18777.0	-5809131.0
16	14	43	25	297	117.0	-144970.0	-18379.0	-5808605.0
16	14	43	25	297	118.0	-112374.0	-19051.0	-5807944.0
16	14	43	25	298	119.0	-97600.0	-19171.0	-5807963.0
16	14	43	25	298	120.0	-94531.0	-19247.0	-5809242.0
16	14	43	25	298	122.0	-125997.0	-19713.0	-5808294.0
16	14	43	25	298	123.0	-155879.0	-19782.0	-5808082.0
16	14	43	25	299	124.0	-178230.0	-20389.0	-5809241.0
16	14	43	25	299	125.0	-195172.0	-20322.0	-5809082.0
16	14	43	25	299	126.0	-215434.0	-20331.0	-5808398.0
16	14	43	25	299	127.0	-192096.0	-20236.0	-5807989.0
16	14	43	25	299	128.0	-145742.0	-20672.0	-5809147.0
16	14	43	25	350	129.0	-92335.0	-20464.0	-5809400.0
16	14	43	25	350	130.0	-41214.0	-20004.0	-5808703.0
16	14	43	25	350	131.0	6871.0	-19690.0	-5808069.0
16	14	43	25	351	132.0	52503.0	-20151.0	-5807794.0
16	14	43	25	351	133.0	90646.0	-20216.0	-5808854.0
16	14	43	25	351	134.0	115071.0	-20577.0	-5808597.0
16	14	43	25	351	135.0	126355.0	-20428.0	-5807973.0
16	14	43	25	352	136.0	132199.0	-20627.0	-5807997.0
16	14	43	25	352	137.0	130277.0	-20502.0	-5809311.0
16	14	43	25	352	138.0	121596.0	-20263.0	-5808924.0
16	14	43	25	352	139.0	110733.0	-20312.0	-5808327.0
16	14	43	25	353	140.0	103812.0	-20554.0	-5808401.0
16	14	43	25	353	141.0	97109.0	-20804.0	-5809682.0
16	14	43	25	353	142.0	93026.0	-20577.0	-5809282.0
16	14	43	25	353	143.0	90316.0	-21016.0	-5808703.0
16	14	43	25	354	145.0	97712.0	-21315.0	-5809372.0
16	14	43	25	354	146.0	96999.0	-21670.0	-5809502.0
16	14	43	25	354	147.0	96446.0	-21729.0	-5808883.0
16	14	43	25	354	148.0	92239.0	-21406.0	-5808140.0
16	14	43	25	355	149.0	87118.0	-21109.0	-5808516.0
16	14	43	25	355	150.0	90063.0	-21296.0	-5809286.0
16	14	43	25	407	151.0	107537.0	-21036.0	-5808826.0
16	14	43	25	463	152.0	136869.0	-20877.0	-5808142.0
16	14	43	25	463	153.0	188813.0	-19682.0	-5808459.0
16	14	43	25	463	154.0	253848.0	-19604.0	-5809751.0
16	14	43	25	464	155.0	315100.0	-19574.0	-5809407.0
16	14	43	25	464	156.0	374078.0	-19447.0	-5808712.0
16	14	43	25	464	157.0	425583.0	-18934.0	-5808922.0
16	14	43	25	464	158.0	465293.0	-19162.0	-5809919.0
16	14	43	25	465	159.0	483561.0	-19872.0	-5809511.0
16	14	43	25	465	160.0	469207.0	-19392.0	-5808829.0
16	14	43	25	465	161.0	419966.0	-19202.0	-5808465.0
16	14	43	25	465	162.0	342306.0	-19083.0	-5809560.0
16	14	43	25	466	163.0	246825.0	-19387.0	-5809558.0
16	14	43	25	466	164.0	134018.0	-19398.0	-5808887.0
16	14	43	25	466	165.0	12999.0	-19190.0	-5808244.0
16	14	43	25	466	190.0	251067.0	-13197.0	-5808952.0
16	14	43	25	466	191.0	262744.0	-13854.0	-5808391.0
16	14	43	25	467	192.0	257228.0	-13804.0	-5809155.0
16	14	43	25	467	193.0	225508.0	-13465.0	-5809246.0
16	14	43	25	467	194.0	168058.0	-13054.0	-5808621.0
16	14	43	25	467	195.0	100288.0	-12369.0	-5808514.0
16	14	43	25	468	196.0	30785.0	-11607.0	-5809904.0
16	14	43	25	468	197.0	-54011.0	-10847.0	-5809556.0
16	14	43	25	468	198.0	-118680.0	-9646.0	-5808930.0
16	14	43	25	468	199.0	-137006.0	-9300.0	-5808311.0
16	14	43	25	469	200.0	-158424.0	-9251.0	-5808921.0
16	14	43	25	469	201.0	-152064.0	-8422.0	-5809067.0
16	14	43	25	469	202.0	-134661.0	-8322.0	-5808492.0
16	14	43	25	469	203.0	-97230.0	-9207.0	-5808781.0
16	14	43	25	470	204.0	-48158.0	-8581.0	-5809917.0
16	14	43	25	470	205.0	-6053.0	-7492.0	-5809376.0
16	14	43	25	470	206.0	10578.0	-7460.0	-5808786.0
16	14	43	25	470	207.0	8184.0	-7427.0	-5808232.0
16	14	43	25	470	208.0	-15849.0	-7372.0	-5808844.0
16	14	43	25	471	209.0	-44156.0	-7772.0	-5808852.0
16	14	43	25	471	210.0	-61417.0	-7888.0	-5808271.0
16	14	43	25	471	212.0	-49046.0	-7479.0	-5809732.0
16	14	43	25	471	213.0	-27976.0	-7827.0	-5809254.0
16	14	43	25	472	214.0	1749.0	-7627.0	-5808629.0
16	14	43	25	522	215.0	32191.0	-7410.0	-5808037.0
16	14	43	25	523	216.0	56713.0	-6992.0	-5808596.0
16	14	43	25	523	217.0	62946.0	-6997.0	-5808859.0
16	14	43	25	523	218.0	64363.0	-6685.0	-5808307.0
16	14	43	25	523	219.0	62271.0	-6014.0	-5808601.0
16	14	43	25	524	220.0	51636.0	-5465.0	-5809727.0
16	14	43	25	524	221.0	32947.0	-5373.0	-5809167.0
16	14	43	25	524	222.0	20451.0	-4795.0	-5808572.0
16	14	43	25	524	223.0	8458.0	-4251.0	-5807996.0
16	14	43	25	525	224.0	4353.0	-4356.0	-5808554.0
16	14	43	25	525	225.0	5835.0	-4152.0	-5808647.0
16	14	43	25	525	226.0	15506.0	-3941.0	-5808065.0
16	14	43	25	525	227.0	32968.0	-3744.0	-5808129.0
16	14	43	25	526	228.0	48825.0	-3454.0	-5809145.0
16	14	43	25	526	229.0	69789.0	-3081.0	-5808677.0
16	14	43	25	526	230.0	98521.0	-2123.0	-5808046.0
16	14	43	25	526	235.0	13109.0	-1727.0	-5807756.0
16	14	43	25	527	236.0	-19311.0	-2469.0	-5808759.0
16	14	43	25	527	237.0	-30769.0	-2239.0	-5809036.0
16	14	43	25	527	238.0	-36411.0	-1909.0	-5808406.0
16	14	43	25	527	239.0	-39164.0	-1777.0	-5807829.0
16	14	43	25	528	240.0	-14954.0	-1468.0	-5808352.0
16	14	43	25	583	241.0	29254.0	-1067.0	-5809036.0
16	14	43	25	583	242.0	100788.0	-504.0	-5808434.0
16	14	43	25	583	243.0	171965.0	-362.0	-5807822.0
16	14	43	25	584	244.0	248939.0	-578.0	-5807522.0
16	14	43	25	584	245.0	328891.0	-461.0	-5808876.0
16	14	43	25	584	246.0	408036.0	-99.0	-5808692.0
16	14	43	25	584	247.0	468423.0	-4.0	-5808086.0
16	14	43	25	585	248.0	502563.0	129.0	-5807542.0
16	14	43	25	585	249.0	506373.0	461.0	-5808682.0
16	14	43	25	585	250.0	471433.0	434.0	-5808944.0
16	14	43	25	585	251.0	393850.0	583.0	-5808366.0
16	14	43	25	586	252.0	286403.0	427.0	-5807715.0
16	14	43	25	586	253.0	218458.0	286.0	-5808427.0
16	14	43	25	586	254.0	157429.0	194.0	-5809129.0
16	14	43	25	586	255.0	29924.0	-70.0	-5808581.0
16	14	43	25	587	1.0	-524273.0	191.0	-5808167.0
16	14	43	25	587	2.0	-812104.0	-250.0	-5809199.0
16	14	43	25	587	3.0	-985587.0	-434.0	-5808724.0
16	14	43	25	587	4.0	-1014734.0	-766.0	-5808021.0
16	14	43	25	587	5.0	-894327.0	-505.0	-5807703.0
16	14	43	25	588	6.0	-692867.0	-362.0	-5808987.0
16	14	43	25	588	7.0	-493649.0	573.0	-5809090.0
16	14	43	25	588	8.0	-301599.0	469.0	-5808452.0
16	14	43	25	588	9.0	-124706.0	743.0	-5807859.0
16	14	43	25	642	10.0	45569.0	1237.0	-5808456.0
16	14	43	25	643	11.0	214856.0	1364.0	-5809159.0
16	14	43	25	643	12.0	355914.0	1351.0	-5808596.0
16	14	43	25	643	13.0	459689.0	1706.0	-5808054.0
16	14	43	25	643	14.0	514981.0	1971.0	-5808925.0
16	14	43	25	644	15.0	521111.0	2023.0	-5809651.0
16	14	43	25	644	16.0	465574.0	2051.0	-5809073.0
16	14	43	25	644	17.0	345287.0	2158.0	-5808394.0
16	14	43	25	644	18.0	157146.0	2548.0	-5808513.0
16	14	43	25	645	19.0	-66485.0	3116.0	-5809661.0
16	14	43	25	645	20.0	-279314.0	3522.0	-5809321.0
16	14	43	25	645	21.0	-415778.0	2891.0	-5808583.0
16	14	43	25	645	23.0	-407586.0	2824.0	-5809310.0
16	14	43	25	646	24.0	-286547.0	2551.0	-5809725.0
16	14	43	25	646	25.0	-106868.0	2233.0	-5809012.0
16	14	43	25	646	26.0	100234.0	2783.0	-5808522.0
16	14	43	25	646	27.0	285514.0	3168.0	-5809074.0
16	14	43	25	646	28.0	408748.0	3304.0	-5809794.0
16	14	43	25	647	29.0	449866.0	3451.0	-5809160.0
16	14	43	25	647	30.0	417196.0	3789.0	-5808594.0
16	14	43	25	647	31.0	334479.0	4263.0	-5808944.0
16	14	43	25	647	32.0	223332.0	5331.0	-5809952.0
16	14	43	25	647	33.0	112746.0	4997.0	-5809376.0
16	14	43	25	648	34.0	4278.0	4293.0	-5808772.0
16	14	43	25	648	35.0	-76448.0	4438.0	-5808041.0
16	14	43	25	648	36.0	-125996.0	5161.0	-5808352.0
16	14	43	25	648	37.0	-145996.0	5237.0	-5809341.0
16	14	43	25	648	38.0	-134364.0	4581.0	-5808908.0
16	14	43	25	649	39.0	-101021.0	4314.0	-5808235.0
16	14	43	25	649	40.0	-73716.0	4541.0	-5807919.0
16	14	43	25	649	41.0	-63762.0	5056.0	-5808947.0
16	14	43	25	649	42.0	-64448.0	5109.0	-5808891.0
16	14	43	25	649	43.0	-65767.0	4780.0	-5808237.0
16	14	43	25	650	44.0	-68269.0	4207.0	-5808132.0
16	14	43	25	650	46.0	-103056.0	4823.0	-5809241.0
16	14	43	25	650	47.0	-145212.0	5270.0	-5808548.0
16	14	43	25	650	48.0	-200297.0	4706.0	-5808085.0
16	14	43	25	706	49.0	-254580.0	4420.0	-5809192.0
16	14	43	25	706	50.0	-284615.0	4488.0	-5809350.0
16	14	43	25	706	51.0	-283010.0	4829.0	-5808679.0
16	14	43	25	706	52.0	-248577.0	5053.0	-5808044.0
16	14	43	25	707	53.0	-193636.0	5684.0	-5808765.0
16	14	43	25	707	54.0	-122542.0	6553.0	-5809545.0
16	14	43	25	707	55.0	-41873.0	6719.0	-5808987.0
16	14	43	25	707	56.0	31920.0	6421.0	-5808252.0
16	14	43	25	708	57.0	82074.0	6339.0	-5808074.0
16	14	43	25	708	58.0	120082.0	6657.0	-5809267.0
16	14	43	25	708	59.0	157592.0	6573.0	-5809209.0
16	14	43	25	708	60.0	181248.0	6247.0	-5808521.0
16	14	43	25	709	61.0	193936.0	6586.0	-5808216.0
16	14	43	25	709	62.0	207500.0	5947.0	-5809333.0
16	14	43	25	709	63.0	227647.0	5642.0	-5809481.0
16	14	43	25	709	64.0	245993.0	5740.0	-5808790.0
16	14	43	25	710	65.0	262813.0	5436.0	-5808322.0
16	14	43	25	710	66.0	277124.0	5727.0	-5809207.0
16	14	43	25	710	68.0	286279.0	5839.0	-5809138.0
16	14	43	25	710	69.0	267211.0	5046.0	-5808568.0
16	14	43	25	711	70.0	229483.0	4453.0	-5808471.0
16	14	43	25	711	71.0	200453.0	4789.0	-5809714.0
16	14	43	25	711	72.0	160101.0	4886.0	-5809375.0
16	14	43	25	711	73.0	111269.0	5171.0	-5808732.0
16	14	43	25	712	74.0	73353.0	5598.0	-5808438.0
16	14	43	25	770	75.0	45024.0	5603.0	-5809887.0
16	14	43	25	770	76.0	7814.0	5625.0	-5809881.0
16	14	43	25	771	77.0	-32289.0	6451.0	-5809264.0
16	14	43	25	771	78.0	-76739.0	7039.0	-5808646.0
16	14	43	25	771	79.0	-122926.0	7225.0	-5809129.0
16	14	43	25	772	80.0	-163835.0	7436.0	-5809501.0
16	14	43	25	772	81.0	-196897.0	7475.0	-5808949.0
16	14	43	25	772	82.0	-218352.0	7903.0	-5808319.0
16	14	43	25	772	83.0	-225222.0	9654.0	-5808841.0
16	14	43	25	773	84.0	-218207.0	10555.0	-5809104.0
16	14	43	25	773	85.0	-184176.0	11126.0	-5808541.0
16	14	43	25	773	86.0	-126266.0	12215.0	-5808578.0
16	14	43	25	773	87.0	-69372.0	12881.0	-5809833.0
16	14	43	25	774	88.0	-8986.0	13746.0	-5809424.0
16	14	43	25	774	89.0	41727.0	14637.0	-5808826.0
16	14	43	25	774	91.0	123429.0	17224.0	-5809876.0
16	14	43	25	774	92.0	157142.0	18237.0	-5809684.0
16	14	43	25	775	93.0	192959.0	19398.0	-5809054.0
16	14	43	25	775	94.0	212504.0	21674.0	-5808611.0
16	14	43	25	775	95.0	219553.0	23694.0	-5809857.0
16	14	43	25	776	96.0	207737.0	25589.0	-5810022.0
16	14	43	25	776	97.0	177239.0	27896.0	-5809375.0
16	14	43	25	776	98.0	127042.0	30398.0	-5808686.0
16	14	43	25	776	99.0	57943.0	33477.0	-5809054.0
16	14	43	25	776	100.0	-28916.0	36053.0	-5810021.0
16	14	43	25	777	101.0	-84346.0	37103.0	-5809486.0
16	14	43	25	777	102.0	-140421.0	39991.0	-5808851.0
16	14	43	25	777	103.0	-232921.0	42600.0	-5808732.0
16	14	43	25	839	104.0	-290570.0	44851.0	-5809801.0
16	14	43	25	839	105.0	-279876.0	46888.0	-5809422.0
16	14	43	25	914	106.0	-258111.0	49349.0	-5808796.0
16	14	43	25	915	107.0	-236397.0	51596.0	-5808559.0
16	14	43	25	915	108.0	-193546.0	53564.0	-5809911.0
16	14	43	25	915	109.0	-137284.0	55797.0	-5809797.0
16	14	43	25	915	110.0	-79453.0	58485.0	-5809198.0
16	14	43	25	916	111.0	-16178.0	60689.0	-5808625.0
16	14	43	25	916	113.0	106295.0	65260.0	-5810175.0
16	14	43	25	916	114.0	153171.0	67328.0	-5809590.0
16	14	43	25	916	115.0	190095.0	68413.0	-5808835.0
16	14	43	25	917	116.0	209714.0	69801.0	-5808994.0
16	14	43	25	917	117.0	207596.0	72098.0	-5810166.0
16	14	43	25	917	118.0	184566.0	73064.0	-5809873.0
16	14	43	25	917	119.0	144138.0	74064.0	-5809154.0
16	14	43	25	918	136.0	-155814.0	77269.0	-5809430.0
16	14	43	25	918	137.0	-103332.0	75797.0	-5809314.0
16	14	43	25	918	138.0	-41521.0	75466.0	-5810517.0
16	14	43	25	918	159.0	-133022.0	37382.0	-5810447.0
16	14	43	25	919	160.0	-374186.0	35156.0	-5810996.0
16	14	43	25	919	161.0	-638201.0	33996.0	-5810443.0
16	14	43	25	919	162.0	-680045.0	32851.0	-5809718.0
16	14	43	25	919	163.0	-409662.0	31177.0	-5809886.0
16	14	43	25	920	164.0	71064.0	29841.0	-5811221.0
16	14	43	25	920	165.0	610127.0	28721.0	-5810927.0
16	14	43	25	920	166.0	994473.0	27508.0	-5810276.0
16	14	43	25	920	167.0	1165195.0	26488.0	-5809823.0
16	14	43	25	921	168.0	1173164.0	25026.0	-5810974.0
16	14	43	25	921	169.0	1000039.0	23363.0	-5811495.0
16	14	43	25	921	170.0	700595.0	22436.0	-5810844.0
16	14	43	25	921	171.0	330908.0	20344.0	-5810312.0
16	14	43	25	922	172.0	-93826.0	18519.0	-5811251.0
16	14	43	25	922	173.0	-383686.0	17178.0	-5811840.0
16	14	43	25	922	174.0	-659230.0	16386.0	-5811221.0
16	14	43	25	922	175.0	-905306.0	15523.0	-5810556.0
16	14	43	25	923	176.0	-1009729.0	14676.0	-5810738.0
16	14	43	25	923	177.0	-959418.0	14072.0	-5811794.0
16	14	43	25	923	178.0	-821422.0	12675.0	-5811399.0
16	14	43	25	923	179.0	-633849.0	11760.0	-5810700.0
16	14	43	25	924	181.0	-264771.0	9352.0	-5811596.0
16	14	43	25	924	182.0	-148841.0	7812.0	-5811718.0
16	14	43	25	924	183.0	-41577.0	7247.0	-5811019.0
16	14	43	25	924	184.0	65174.0	6913.0	-5810528.0
16	14	43	25	925	185.0	161343.0	6607.0	-5811284.0
16	14	43	25	925	186.0	234759.0	5876.0	-5811851.0
16	14	43	26	70	187.0	172747.0	5323.0	-5811216.0
16	14	43	26	70	188.0	163397.0	5196.0	-5810701.0
16	14	43	26	70	189.0	180419.0	5146.0	-5811246.0
16	14	43	26	71	190.0	151399.0	4358.0	-5811990.0
16	14	43	26	71	191.0	110165.0	3937.0	-5811326.0
16	14	43	26	71	192.0	106677.0	4229.0	-5810744.0
16	14	43	26	71	193.0	137519.0	3463.0	-5811072.0
16	14	43	26	72	194.0	163924.0	2818.0	-5812310.0
16	14	43	26	72	195.0	176227.0	2164.0	-5811768.0
16	14	43	26	72	196.0	181668.0	1786.0	-5811149.0
16	14	43	26	72	197.0	192366.0	1508.0	-5810554.0
16	14	43	26	73	198.0	205582.0	1795.0	-5811198.0
16	14	43	26	73	199.0	221765.0	1511.0	-5811372.0
16	14	43	26	73	200.0	262668.0	787.0	-5810796.0
16	14	43	26	73	201.0	290343.0	481.0	-5810769.0
16	14	43	26	74	203.0	226615.0	-1315.0	-5811954.0
16	14	43	26	74	204.0	184954.0	-2188.0	-5811343.0
16	14	43	26	75	205.0	126201.0	-2794.0	-5811266.0
16	14	43	26	75	206.0	63165.0	-3456.0	-5812546.0
16	14	43	26	75	207.0	25076.0	-4022.0	-5812181.0
16	14	43	26	76	208.0	-69139.0	-4218.0	-5811554.0
16	14	43	26	78	209.0	-74251.0	-5111.0	-5810965.0
16	14	43	26	79	210.0	2554.0	-6093.0	-5811721.0
16	14	43	26	79	211.0	24714.0	-6483.0	-5811947.0
16	14	43	26	80	212.0	25623.0	-6727.0	-5811367.0
16	14	43	26	81	213.0	60155.0	-7254.0	-5810922.0
16	14	43	26	82	214.0	79050.0	-8252.0	-5812126.0
16	14	43	26	83	215.0	58115.0	-9273.0	-5812282.0
16	14	43	26	83	216.0	19444.0	-9859.0	-5811679.0
16	14	43	26	84	217.0	-4083.0	-10831.0	-5811057.0
16	14	43	26	85	218.0	23169.0	-12037.0	-5811634.0
16	14	43	26	86	219.0	50264.0	-12504.0	-5812310.0
16	14	43	26	87	220.0	44734.0	-13437.0	-5811746.0
16	14	43	26	88	221.0	48602.0	-13951.0	-5811109.0
16	14	43	26	89	222.0	-32274.0	-14241.0	-5811484.0
16	14	43	26	89	223.0	-128073.0	-14493.0	-5811948.0
16	14	43	26	90	224.0	-165060.0	-15065.0	-5811404.0
16	14	43	26	91	226.0	-117662.0	-16432.0	-5811427.0
16	14	43	26	92	227.0	-75771.0	-17696.0	-5811746.0
16	14	43	26	93	228.0	-5161.0	-18597.0	-5811159.0
16	14	43	26	94	229.0	68193.0	-19259.0	-5810881.0
16	14	43	26	94	230.0	153214.0	-19083.0	-5812386.0
16	14	43	26	95	231.0	213576.0	-19686.0	-5812414.0
16	14	43	26	95	232.0	312383.0	-20292.0	-5811792.0
16	14	43	26	96	233.0	362264.0	-19846.0	-5811162.0
16	14	43	26	96	234.0	236815.0	-19471.0	-5811481.0
16	14	43	26	96	235.0	164117.0	-19834.0	-5811917.0
16	14	43	26	96	236.0	105409.0	-20119.0	-5811369.0
16	14	43	26	97	237.0	10614.0	-19997.0	-5810824.0
16	14	43	26	97	238.0	-53761.0	-20689.0	-5811797.0
16	14	43	26	97	239.0	-61979.0	-20686.0	-5812171.0
16	14	43	26	98	240.0	-134624.0	-21542.0	-5811540.0
16	14	43	26	98	241.0	-177579.0	-22096.0	-5810982.0
16	14	43	26	98	242.0	-89633.0	-22726.0	-5811759.0
16	14	43	26	98	243.0	-34931.0	-23072.0	-5812398.0
16	14	43	26	99	244.0	-32766.0	-23266.0	-5811760.0
16	14	43	26	99	245.0	-6817.0	-23677.0	-5811154.0
16	14	43	26	99	246.0	11734.0	-22765.0	-5811173.0
16	14	43	26	99	248.0	-123459.0	-21957.0	-5811911.0
16	14	43	26	100	249.0	-136942.0	-22362.0	-5811320.0
16	14	43	26	100	250.0	-67266.0	-22765.0	-5811092.0
16	14	43	26	100	251.0	-135047.0	-23099.0	-5812213.0
16	14	43	26	100	252.0	-256603.0	-22731.0	-5811904.0
16	14	43	26	101	253.0	-227642.0	-22476.0	-5811324.0
16	14	43	26	101	254.0	-137809.0	-22502.0	-5811006.0
16	14	43	26	101	255.0	-66266.0	-22512.0	-5811819.0
16	14	43	26	101	0.0	-36949.0	-22012.0	-5811478.0
16	14	43	26	102	1.0	-77849.0	-21545.0	-5810856.0
16	14	43	26	102	2.0	-91947.0	-21886.0	-5810703.0
16	14	43	26	102	3.0	-140071.0	-22303.0	-5811431.0
16	14	43	26	102	4.0	-226183.0	-22123.0	-5810929.0
16	14	43	26	103	5.0	-153735.0	-21476.0	-5810377.0
16	14	43	26	103	6.0	-155839.0	-21158.0	-5811062.0
16	14	43	26	103	7.0	-244892.0	-20973.0	-5811725.0
16	14	43	26	104	8.0	-150587.0	-21096.0	-5811067.0
16	14	43	26	104	9.0	-41621.0	-20774.0	-5810478.0
16	14	43	26	104	10.0	-373636.0	-20415.0	-5810667.0
16	14	43	26	104	11.0	-460261.0	-20786.0	-5812067.0
16	14	43	26	105	12.0	-226401.0	-20534.0	-5811657.0
16	14	43	26	105	15.0	154565.0	-19921.0	-5811514.0
16	14	43	26	105	16.0	323445.0	-20963.0	-5811251.0
16	14	43	26	106	17.0	376045.0	-20992.0	-5810772.0
16	14	43	26	106	18.0	357590.0	-20844.0	-5811626.0
16	14	43	26	106	19.0	323401.0	-20697.0	-5812060.0
16	14	43	26	106	20.0	294416.0	-20041.0	-5811340.0
16	14	43	26	128	21.0	269523.0	-20045.0	-5810756.0
16	14	43	26	128	22.0	231141.0	-20219.0	-5810340.0
16	14	43	26	129	23.0	229966.0	-19603.0	-5811423.0
16	14	43	26	148	24.0	108680.0	-20187.0	-5811315.0
16	14	43	26	149	25.0	86374.0	-19734.0	-5810771.0
16	14	43	26	149	26.0	84607.0	-19781.0	-5811524.0
16	14	43	26	149	27.0	-181529.0	-20689.0	-5812239.0
16	14	43	26	150	28.0	-363342.0	-21151.0	-5811574.0
16	14	43	26	150	29.0	-222321.0	-21419.0	-5810983.0
16	14	43	26	150	30.0	-71319.0	-21039.0	-5811142.0
16	14	43	26	150	31.0	-130584.0	-20921.0	-5812332.0
16	14	43	26	151	32.0	-89192.0	-20646.0	-5811866.0
16	14	43	26	151	33.0	125333.0	-20996.0	-5811331.0
16	14	43	26	151	34.0	194740.0	-21069.0	-5810966.0
16	14	43	26	152	35.0	221724.0	-20971.0	-5811838.0
16	14	43	26	152	37.0	428782.0	-20871.0	-5811070.0
16	14	43	26	152	38.0	425904.0	-21809.0	-5810678.0
16	14	43	26	153	39.0	406361.0	-22696.0	-5811573.0
16	14	43	26	153	40.0	409189.0	-22611.0	-5811323.0
16	14	43	26	153	41.0	361574.0	-22866.0	-5810742.0
16	14	43	26	153	42.0	248434.0	-23262.0	-5811246.0
16	14	43	26	171	43.0	189313.0	-23251.0	-5812179.0
16	14	43	26	191	44.0	140014.0	-23327.0	-5811596.0
16	14	43	26	191	45.0	-332187.0	-22546.0	-5811002.0
16	14	43	26	192	46.0	-549831.0	-22891.0	-5811609.0
16	14	43	26	192	47.0	-493253.0	-23537.0	-5812466.0
16	14	43	26	192	48.0	-401246.0	-24342.0	-5811829.0
16	14	43	26	193	49.0	-431816.0	-24806.0	-5811245.0
16	14	43	26	193	50.0	-442434.0	-25183.0	-5810873.0
16	14	43	26	193	51.0	-340431.0	-25252.0	-5811781.0
16	14	43	26	193	52.0	-208041.0	-25468.0	-5811519.0
16	14	43	26	194	53.0	-62050.0	-25324.0	-5810936.0
16	14	43	26	194	54.0	-145687.0	-25759.0	-5810537.0
16	14	43	26	194	55.0	-196079.0	-26432.0	-5811626.0
16	14	43	26	195	56.0	-145737.0	-26496.0	-5811459.0
16	14	43	26	217	57.0	-175482.0	-26944.0	-5810862.0
16	14	43	26	231	59.0	-317808.0	-27235.0	-5811072.0
16	14	43	26	232	60.0	-147002.0	-27258.0	-5810807.0
16	14	43	26	232	61.0	18826.0	-28005.0	-5810280.0
16	14	43	26	232	62.0	143813.0	-27898.0	-5810804.0
16	14	43	26	232	63.0	310279.0	-27614.0	-5811725.0
16	14	43	26	233	64.0	320061.0	-27840.0	-5811088.0
16	14	43	26	233	65.0	253294.0	-27417.0	-5810501.0
16	14	43	26	233	66.0	287538.0	-27131.0	-5810511.0
16	14	43	26	233	67.0	352804.0	-27237.0	-5812050.0
16	14	43	26	234	68.0	150139.0	-27045.0	-5811697.0
16	14	43	26	234	69.0	-684.0	-27423.0	-5811098.0
16	14	43	26	234	70.0	23563.0	-27834.0	-5810530.0
16	14	43	26	235	71.0	3348.0	-27834.0	-5811058.0
16	14	43	26	235	72.0	-101587.0	-27602.0	-5811025.0
16	14	43	26	235	82.0	-91269.0	-27807.0	-5810267.0
16	14	43	26	236	83.0	-116404.0	-28414.0	-5810787.0
16	14	43	26	236	84.0	-129636.0	-28436.0	-5811599.0
16	14	43	26	236	85.0	-148079.0	-27674.0	-5811076.0
16	14	43	26	236	86.0	-103467.0	-27693.0	-5810399.0
16	14	43	26	237	87.0	-172373.0	-27872.0	-5810421.0
16	14	43	26	262	88.0	-270226.0	-28025.0	-5811402.0
16	14	43	26	307	89.0	-304815.0	-27999.0	-5811019.0
16	14	43	26	307	90.0	-179456.0	-26264.0	-5810369.0
16	14	43	26	308	91.0	12425.0	-25849.0	-5810479.0
16	14	43	26	308	92.0	99545.0	-25852.0	-5811737.0
16	14	43	26	308	93.0	129928.0	-25873.0	-5811391.0
16	14	43	26	309	94.0	135459.0	-25553.0	-5810746.0
16	14	43	26	309	95.0	188136.0	-24721.0	-5810419.0
16	14	43	26	309	96.0	245306.0	-24509.0	-5811832.0
16	14	43	26	309	97.0	181142.0	-25051.0	-5811957.0
16	14	43	26	310	98.0	180728.0	-25267.0	-5811304.0
16	14	43	26	311	99.0	214112.0	-24739.0	-5810584.0
16	14	43	26	311	100.0	102608.0	-24380.0	-5811072.0
16	14	43	26	311	101.0	-4408.0	-24099.0	-5812314.0
16	14	43	26	312	102.0	-68866.0	-23777.0	-5811899.0
16	14	43	26	312	104.0	-178567.0	-23464.0	-5810897.0
16	14	43	26	312	105.0	-54284.0	-23534.0	-5812041.0
16	14	43	26	313	106.0	-3357.0	-24254.0	-5812172.0
16	14	43	26	313	107.0	-4509.0	-23707.0	-5811462.0
16	14	43	26	313	108.0	-29167.0	-23372.0	-5811088.0
16	14	43	26	313	109.0	-38815.0	-22585.0	-5812138.0
16	14	43	26	314	110.0	6316.0	-22333.0	-5812372.0
16	14	43	26	314	111.0	83937.0	-21827.0	-5811662.0
16	14	43	26	362	112.0	175951.0	-21161.0	-5811133.0
16	14	43	26	362	113.0	274586.0	-20517.0	-5811624.0
16	14	43	26	363	114.0	400923.0	-21024.0	-5812546.0
16	14	43	26	363	115.0	343559.0	-20691.0	-5811893.0
16	14	43	26	363	116.0	454230.0	-19838.0	-5811290.0
16	14	43	26	364	117.0	818401.0	-20017.0	-5811151.0
16	14	43	26	364	118.0	1116189.0	-19895.0	-5812351.0
16	14	43	26	364	119.0	802031.0	-19346.0	-5812068.0
16	14	43	26	364	120.0	234203.0	-19482.0	-5811389.0
16	14	43	26	365	121.0	64654.0	-19596.0	-5811337.0
16	14	43	26	365	122.0	-39903.0	-19732.0	-5812962.0
16	14	43	26	365	123.0	-175667.0	-19557.0	-5812815.0
16	14	43	26	365	124.0	-303588.0	-18829.0	-5812180.0
16	14	43	26	366	125.0	-607874.0	-18625.0	-5811571.0
16	14	43	26	366	127.0	-664899.0	-17176.0	-5813026.0
16	14	43	26	366	128.0	-427926.0	-18094.0	-5812446.0
16	14	43	26	367	129.0	-257547.0	-18547.0	-5811853.0
16	14	43	26	367	130.0	-106661.0	-18164.0	-5812160.0
16	14	43	26	367	131.0	87688.0	-17722.0	-5812776.0
16	14	43	26	367	132.0	221112.0	-17006.0	-5812220.0
16	14	43	26	368	133.0	122635.0	-16299.0	-5811568.0
16	14	43	26	368	134.0	-57435.0	-15965.0	-5812022.0
16	14	43	26	368	135.0	-78405.0	-14582.0	-5813129.0
16	14	43	26	368	136.0	51901.0	-14096.0	-5812624.0
16	14	43	26	369	137.0	121265.0	-13381.0	-5812027.0
16	14	43	26	369	138.0	156656.0	-12860.0	-5811709.0
16	14	43	26	369	139.0	99178.0	-12919.0	-5812921.0
16	14	43	26	370	140.0	34398.0	-12796.0	-5812852.0
16	14	43	26	370	141.0	169153.0	-12667.0	-5812237.0
16	14	43	26	370	142.0	300747.0	-12359.0	-5811779.0
16	14	43	26	370	143.0	294906.0	-12242.0	-5812994.0
16	14	43	26	371	144.0	255638.0	-12224.0	-5813160.0
16	14	43	26	371	145.0	147299.0	-12049.0	-5812562.0
16	14	43	26	371	146.0	70591.0	-11761.0	-5811906.0
16	14	43	26	371	147.0	131964.0	-11392.0	-5812711.0
16	14	43	26	372	149.0	247542.0	-10469.0	-5812994.0
16	14	43	26	420	150.0	213924.0	-10037.0	-5812276.0
16	14	43	26	420	151.0	1296.0	-10402.0	-5812506.0
16	14	43	26	421	152.0	101770.0	-10442.0	-5813894.0
16	14	43	26	421	153.0	767906.0	-10032.0	-5813699.0
16	14	43	26	421	154.0	2509308.0	-10067.0	-5813149.0
16	14	43	26	421	155.0	3007825.0	-10244.0	-5812779.0
16	14	43	26	422	156.0	2713084.0	-10129.0	-5813761.0
16	14	43	26	422	157.0	2438298.0	-9454.0	-5814078.0
16	14	43	26	422	158.0	2078277.0	-7465.0	-5813341.0
16	14	43	26	423	159.0	1464146.0	-6463.0	-5812736.0
16	14	43	26	423	160.0	618054.0	-6694.0	-5813288.0
16	14	43	26	423	161.0	-368342.0	-6997.0	-5813982.0
16	14	43	26	423	162.0	-1291319.0	-7112.0	-5813258.0
16	14	43	26	424	163.0	-2051042.0	-7007.0	-5812506.0
16	14	43	26	424	164.0	-2569324.0	-6213.0	-5812245.0
16	14	43	26	424	165.0	-2782992.0	-6381.0	-5813541.0
16	14	43	26	425	166.0	-2776214.0	-6522.0	-5813464.0
16	14	43	26	425	167.0	-2657346.0	-6538.0	-5812804.0
16	14	43	26	425	168.0	-2384613.0	-6386.0	-5812369.0
16	14	43	26	426	169.0	-1786135.0	-5292.0	-5813412.0
16	14	43	26	426	170.0	-1043056.0	-5022.0	-5813824.0
16	14	43	26	426	172.0	-49242.0	-5192.0	-5812748.0
16	14	43	26	426	173.0	235712.0	-5529.0	-5813539.0
16	14	43	26	427	174.0	440149.0	-5506.0	-5814279.0
16	14	43	26	427	175.0	541878.0	-5442.0	-5813644.0
16	14	43	26	427	176.0	548264.0	-5054.0	-5813057.0
16	14	43	26	427	177.0	577751.0	-4961.0	-5813502.0
16	14	43	26	471	178.0	645633.0	-4764.0	-5814349.0
16	14	43	26	472	179.0	637566.0	-4836.0	-5813680.0
16	14	43	26	472	180.0	516883.0	-3861.0	-5813077.0
16	14	43	26	472	181.0	381825.0	-3744.0	-5812579.0
16	14	43	26	473	182.0	309406.0	-4614.0	-5813236.0
16	14	43	26	473	183.0	180840.0	-4384.0	-5812936.0
16	14	43	26	473	184.0	36048.0	-4254.0	-5812342.0
16	14	43	26	473	185.0	-30224.0	-3545.0	-5812597.0
16	14	43	26	474	186.0	85059.0	-3556.0	-5813765.0
16	14	43	26	474	187.0	248152.0	-2971.0	-5813300.0
16	14	43	26	474	188.0	329792.0	-2524.0	-5812732.0
16	14	43	26	475	189.0	342427.0	-2779.0	-5812322.0
16	14	43	26	475	190.0	369504.0	-2814.0	-5813115.0
16	14	43	26	475	191.0	390416.0	-3284.0	-5812828.0
16	14	43	26	475	192.0	336428.0	-3084.0	-5812267.0
16	14	43	26	476	194.0	501749.0	-2499.0	-5813686.0
16	14	43	26	476	195.0	593576.0	-2884.0	-5813023.0
16	14	43	26	476	196.0	543633.0	-3399.0	-5812433.0
16	14	43	26	476	197.0	438451.0	-3204.0	-5812448.0
16	14	43	26	477	198.0	341299.0	-2962.0	-5813740.0
16	14	43	26	477	199.0	214511.0	-2063.0	-5813317.0
16	14	43	26	477	200.0	-26701.0	-1961.0	-5812698.0
16	14	43	26	515	201.0	-313081.0	-1367.0	-5812141.0
16	14	43	26	515	202.0	-666794.0	-632.0	-5812971.0
16	14	43	26	559	203.0	-798096.0	235.0	-5813152.0
16	14	43	26	559	204.0	-810839.0	120.0	-5812594.0
16	14	43	26	559	205.0	-815071.0	-179.0	-5812831.0
16	14	43	26	560	206.0	-701801.0	-1345.0	-5813939.0
16	14	43	26	560	207.0	-549276.0	-1692.0	-5813397.0
16	14	43	26	560	208.0	-480070.0	-1157.0	-5812816.0
16	14	43	26	561	209.0	-427402.0	-953.0	-5812249.0
16	14	43	26	561	210.0	-395332.0	-1348.0	-5812905.0
16	14	43	26	561	211.0	-276114.0	-1469.0	-5812806.0
16	14	43	26	561	212.0	-80473.0	-866.0	-5812255.0
16	14	43	26	562	213.0	710.0	-958.0	-5812284.0
16	14	43	26	562	214.0	-4462.0	-713.0	-5813516.0
16	14	43	26	562	215.0	75595.0	-353.0	-5813102.0
16	14	43	26	563	217.0	335439.0	-41.0	-5812194.0
16	14	43	26	563	218.0	395794.0	-317.0	-5813557.0
16	14	43	26	563	239.0	-211527.0	2740.0	-5813677.0
16	14	43	26	563	240.0	-184592.0	2221.0	-5813066.0
16	14	43	26	564	241.0	-79008.0	2097.0	-5812466.0
16	14	43	26	564	242.0	-26247.0	2390.0	-5813158.0
16	14	43	26	564	243.0	-57189.0	2579.0	-5813893.0
16	14	43	26	565	244.0	-61839.0	3163.0	-5813276.0
16	14	43	26	565	245.0	999.0	3334.0	-5812654.0
16	14	43	26	602	246.0	91400.0	3535.0	-5812631.0
16	14	43	26	602	247.0	174426.0	4013.0	-5814009.0
16	14	43	26	603	248.0	197543.0	4628.0	-5813707.0
16	14	43	26	603	249.0	180840.0	4639.0	-5813066.0
16	14	43	26	603	250.0	224713.0	4973.0	-5812534.0
16	14	43	26	604	251.0	331730.0	4973.0	-5813672.0
16	14	43	26	604	252.0	436441.0	4468.0	-5813979.0
16	14	43	26	604	253.0	493431.0	3731.0	-5813411.0
16	14	43	26	605	254.0	473574.0	4061.0	-5812864.0
16	14	43	26	605	255.0	399566.0	3915.0	-5813959.0
16	14	43	26	605	0.0	325745.0	4089.0	-5814396.0
16	14	43	26	606	1.0	237095.0	4409.0	-5813820.0
16	14	43	26	606	2.0	157624.0	4529.0	-5813082.0
16	14	43	26	606	3.0	56427.0	5071.0	-5813168.0
16	14	43	26	606	4.0	-48412.0	5443.0	-5814157.0
16	14	43	26	607	6.0	-177657.0	5958.0	-5813129.0
16	14	43	26	607	7.0	-200051.0	5229.0	-5812760.0
16	14	43	26	607	8.0	-178060.0	5029.0	-5813801.0
16	14	43	26	607	9.0	-115494.0	4843.0	-5813995.0
16	14	43	26	608	10.0	-53246.0	4863.0	-5813292.0
16	14	43	26	608	11.0	-16234.0	4813.0	-5812868.0
16	14	43	26	647	12.0	17458.0	4891.0	-5813969.0
16	14	43	26	647	13.0	-23688.0	5471.0	-5814379.0
16	14	43	26	648	14.0	-32347.0	6242.0	-5813697.0
16	14	43	26	648	15.0	-51942.0	6385.0	-5813121.0
16	14	43	26	648	16.0	-368440.0	6248.0	-5813739.0
16	14	43	26	649	17.0	-823075.0	5748.0	-5814481.0
16	14	43	26	649	18.0	-991137.0	5513.0	-5813851.0
16	14	43	26	649	19.0	-813278.0	5338.0	-5813211.0
16	14	43	26	650	20.0	-648854.0	5586.0	-5813255.0
16	14	43	26	650	21.0	-496361.0	5819.0	-5814574.0
16	14	43	26	650	22.0	-276894.0	6195.0	-5814339.0
16	14	43	26	650	23.0	-25806.0	7010.0	-5813665.0
16	14	43	26	651	24.0	91166.0	7293.0	-5813127.0
16	14	43	26	651	25.0	261530.0	7876.0	-5813957.0
16	14	43	26	651	26.0	270407.0	8342.0	-5814723.0
16	14	43	26	652	28.0	-861255.0	8577.0	-5813375.0
16	14	43	26	652	29.0	-543566.0	9484.0	-5813939.0
16	14	43	26	652	30.0	-176871.0	10860.0	-5814900.0
16	14	43	26	652	31.0	148685.0	12914.0	-5814324.0
16	14	43	26	653	32.0	461881.0	15209.0	-5813765.0
16	14	43	26	653	33.0	865632.0	16656.0	-5813566.0
16	14	43	26	693	34.0	1172449.0	18269.0	-5814409.0
16	14	43	26	694	35.0	1355468.0	20277.0	-5814010.0
16	14	43	26	694	36.0	1468140.0	23457.0	-5813447.0
16	14	43	26	694	37.0	1515308.0	27343.0	-5813984.0
16	14	43	26	695	38.0	1460329.0	29294.0	-5814963.0
16	14	43	26	695	39.0	1308053.0	31475.0	-5814331.0
16	14	43	26	695	40.0	1078923.0	33859.0	-5813703.0
16	14	43	26	695	41.0	775456.0	35758.0	-5813359.0
16	14	43	26	696	42.0	507104.0	38606.0	-5814187.0
16	14	43	26	696	43.0	198506.0	41642.0	-5813821.0
16	14	43	26	696	44.0	-131468.0	44595.0	-5813342.0
16	14	43	26	696	45.0	-382882.0	47775.0	-5814269.0
16	14	43	26	696	46.0	-512942.0	50612.0	-5814524.0
16	14	43	26	697	47.0	-589657.0	53904.0	-5813796.0
16	14	43	26	697	48.0	-688073.0	57694.0	-5813229.0
16	14	43	26	697	51.0	-802509.0	68167.0	-5813746.0
16	14	43	26	697	52.0	-718294.0	71273.0	-5813164.0
16	14	43	26	698	53.0	-518115.0	74706.0	-5812686.0
16	14	43	26	698	54.0	-377470.0	78542.0	-5813800.0
16	14	43	26	698	55.0	-258574.0	82215.0	-5813924.0
16	14	43	26	699	56.0	-52554.0	85933.0	-5813364.0
16	14	43	26	735	57.0	125476.0	89753.0	-5812756.0
16	14	43	26	735	58.0	244617.0	93386.0	-5813589.0
16	14	43	26	735	59.0	287907.0	97063.0	-5814176.0
16	14	43	26	736	60.0	266972.0	99408.0	-5813617.0
16	14	43	26	736	61.0	116316.0	102615.0	-5812975.0
16	14	43	26	736	62.0	-153354.0	105878.0	-5813859.0
16	14	43	26	736	63.0	-409922.0	109007.0	-5814306.0
16	14	43	26	737	64.0	-572276.0	111147.0	-5813717.0
16	14	43	26	737	65.0	-709936.0	114124.0	-5813002.0
16	14	43	26	737	66.0	-894034.0	116546.0	-5813068.0
16	14	43	26	737	67.0	-1077411.0	118499.0	-5814027.0
16	14	43	26	738	68.0	-1133123.0	120534.0	-5813652.0
16	14	43	26	738	69.0	-1164212.0	122310.0	-5812982.0
16	14	43	26	738	70.0	-1155376.0	123700.0	-5812674.0
16	14	43	26	739	71.0	-1083471.0	123785.0	-5813781.0
16	14	43	26	739	73.0	-861636.0	125098.0	-5813082.0
16	14	43	26	739	74.0	-761287.0	125253.0	-5812689.0
16	14	43	26	739	75.0	-669069.0	125306.0	-5813880.0
16	14	43	26	740	76.0	-574516.0	125633.0	-5813954.0
16	14	43	26	740	77.0	-470673.0	125929.0	-5813311.0
16	14	43	26	740	78.0	-433630.0	125902.0	-5812790.0
16	14	43	26	778	79.0	-389884.0	126038.0	-5813866.0
16	14	43	26	778	80.0	-273843.0	125458.0	-5814311.0
16	14	43	26	778	81.0	-164497.0	124798.0	-5813702.0
16	14	43	26	779	82.0	-135770.0	123923.0	-5813007.0
16	14	43	26	779	83.0	-106132.0	121795.0	-5813068.0
16	14	43	26	779	84.0	-16544.0	119510.0	-5814368.0
16	14	43	26	780	85.0	56323.0	117687.0	-5814139.0
16	14	43	26	780	86.0	113837.0	116317.0	-5813424.0
16	14	43	26	780	87.0	176713.0	114870.0	-5813031.0
16	14	43	26	781	88.0	125164.0	112645.0	-5814222.0
16	14	43	26	781	89.0	76599.0	109950.0	-5814713.0
16	14	43	26	781	90.0	114813.0	107489.0	-5814021.0
16	14	43	26	781	91.0	143718.0	104896.0	-5813482.0
16	14	43	26	782	92.0	195853.0	102156.0	-5814178.0
16	14	43	26	782	93.0	216213.0	99756.0	-5815056.0
16	14	43	26	782	95.0	363294.0	94003.0	-5813859.0
16	14	43	26	783	96.0	362025.0	90851.0	-5813751.0
16	14	43	26	783	97.0	297424.0	87205.0	-5814974.0
16	14	43	26	783	98.0	303346.0	84771.0	-5814594.0
16	14	43	26	783	99.0	384496.0	81850.0	-5813976.0
16	14	43	26	784	100.0	428595.0	78691.0	-5813571.0
16	14	43	26	784	101.0	415757.0	75889.0	-5814740.0
16	14	43	26	818	102.0	416384.0	73167.0	-5814770.0
16	14	43	26	818	103.0	572669.0	70733.0	-5814167.0
16	14	43	26	818	104.0	692508.0	68381.0	-5813572.0
16	14	43	26	819	105.0	697144.0	65757.0	-5814152.0
16	14	43	26	819	106.0	632334.0	63112.0	-5815078.0
16	14	43	26	819	107.0	414369.0	59965.0	-5814530.0
16	14	43	26	820	108.0	93709.0	56764.0	-5813908.0
16	14	43	26	820	109.0	32238.0	53786.0	-5814438.0
16	14	43	26	820	110.0	239038.0	50796.0	-5815324.0
16	14	43	26	820	111.0	211146.0	48016.0	-5814761.0
16	14	43	26	821	112.0	-359857.0	45515.0	-5814076.0
16	14	43	26	821	113.0	467436.0	43406.0	-5813946.0
16	14	43	26	821	114.0	1669131.0	41517.0	-5815540.0
16	14	43	26	822	115.0	1999554.0	40041.0	-5815447.0
16	14	43	26	822	116.0	1769509.0	38184.0	-5814844.0
16	14	43	26	822	118.0	960583.0	34271.0	-5814989.0
16	14	43	26	822	119.0	877734.0	31118.0	-5815830.0
16	14	43	26	823	120.0	723106.0	28296.0	-5815290.0
16	14	43	26	823	121.0	386413.0	26659.0	-5814529.0
16	14	43	26	823	122.0	92757.0	24913.0	-5814639.0
16	14	43	26	824	123.0	-98993.0	23579.0	-5815752.0
16	14	43	26	864	124.0	-240416.0	22321.0	-5815422.0
16	14	43	26	865	125.0	-380627.0	20988.0	-5814701.0
16	14	43	26	865	126.0	-539659.0	20519.0	-5814734.0
16	14	43	26	865	127.0	-689467.0	18873.0	-5815844.0
16	14	43	26	866	128.0	-819286.0	17198.0	-5815555.0
16	14	43	26	866	129.0	-935681.0	16114.0	-5814802.0
16	14	43	26	866	130.0	-1053307.0	14829.0	-5814291.0
16	14	43	26	866	131.0	-1166183.0	13629.0	-5814941.0
16	14	43	26	867	132.0	-1275282.0	12309.0	-5815392.0
16	14	43	26	867	133.0	-1128219.0	10633.0	-5814748.0
16	14	43	26	867	134.0	-1021695.0	9178.0	-5814189.0
16	14	43	26	867	135.0	-1009063.0	8203.0	-5814777.0
16	14	43	26	868	136.0	-919522.0	6836.0	-5815743.0
16	14	43	26	868	137.0	-727625.0	6424.0	-5815187.0
16	14	43	26	868	138.0	-481099.0	5831.0	-5814577.0
16	14	43	26	869	140.0	-70089.0	4034.0	-5815909.0
16	14	43	26	869	141.0	83571.0	3648.0	-5815364.0
16	14	43	26	869	142.0	267369.0	2729.0	-5814736.0
16	14	43	26	869	143.0	434030.0	2497.0	-5814959.0
16	14	43	26	870	144.0	590324.0	2127.0	-5816134.0
16	14	43	26	870	145.0	769641.0	1311.0	-5815740.0
16	14	43	26	870	146.0	911649.0	280.0	-5815087.0
16	14	43	26	902	147.0	982071.0	-229.0	-5814564.0
16	14	43	26	902	148.0	1021074.0	-662.0	-5815496.0
16	14	43	26	903	149.0	948285.0	-743.0	-5815992.0
16	14	43	26	903	150.0	814538.0	-1409.0	-5815304.0
16	14	43	26	903	151.0	703523.0	-2357.0	-5814714.0
16	14	43	26	904	152.0	585196.0	-3196.0	-5814693.0
16	14	43	26	904	153.0	448058.0	-5247.0	-5815794.0
16	14	43	26	904	154.0	310101.0	-6763.0	-5815297.0
16	14	43	26	904	155.0	138214.0	-8273.0	-5814670.0
16	14	43	26	944	156.0	82949.0	-9406.0	-5814568.0
16	14	43	26	944	157.0	165584.0	-11017.0	-5815816.0
16	14	43	26	945	158.0	100103.0	-12106.0	-5815438.0
16	14	43	26	945	159.0	8705.0	-13659.0	-5814861.0
16	14	43	26	945	160.0	-1385.0	-15054.0	-5814412.0
16	14	43	26	945	161.0	-28653.0	-16847.0	-5815230.0
16	14	43	26	946	163.0	-101974.0	-19879.0	-5814406.0
16	14	43	26	946	164.0	-17083.0	-22187.0	-5813926.0
16	14	43	26	946	165.0	8576.0	-23389.0	-5814712.0
16	14	43	26	947	166.0	-80100.0	-24392.0	-5814487.0
16	14	43	26	947	167.0	-295407.0	-24483.0	-5813922.0
16	14	43	26	947	168.0	-442232.0	-25490.0	-5814606.0
16	14	43	26	987	169.0	-558594.0	-26666.0	-5815277.0
16	14	43	26	987	170.0	-647641.0	-28066.0	-5814598.0
16	14	43	26	988	171.0	-683939.0	-29774.0	-5814107.0
16	14	43	26	988	185.0	536310.0	-42252.0	-5815695.0
16	14	43	26	989	186.0	706114.0	-43407.0	-5815353.0
16	14	43	26	989	187.0	882534.0	-44998.0	-5814785.0
16	14	43	26	989	188.0	884826.0	-45301.0	-5814327.0
16	14	43	26	990	189.0	871281.0	-45485.0	-5815737.0
16	14	43	26	990	190.0	866034.0	-45796.0	-5816009.0
16	14	43	26	990	191.0	776879.0	-46014.0	-5815384.0
16	14	43	26	991	192.0	649668.0	-45716.0	-5814712.0
16	14	43	26	991	193.0	1157833.0	-45581.0	-5815261.0
16	14	43	26	991	194.0	2685167.0	-44608.0	-5816173.0
16	14	43	26	992	195.0	1758069.0	-44097.0	-5815516.0
16	14	43	26	992	196.0	975211.0	-44228.0	-5814781.0
16	14	43	26	992	197.0	736083.0	-44976.0	-5814660.0
16	14	43	26	993	198.0	628735.0	-44786.0	-5816054.0
16	14	43	27	30	199.0	441218.0	-45088.0	-5815837.0
16	14	43	27	31	200.0	198940.0	-45830.0	-5815159.0
16	14	43	27	31	201.0	-60959.0	-46252.0	-5814827.0
16	14	43	27	32	202.0	-324255.0	-47162.0	-5816202.0
16	14	43	27	32	203.0	-551649.0	-47254.0	-5816159.0
16	14	43	27	32	204.0	-705311.0	-47917.0	-5815514.0
16	14	43	27	33	205.0	-774049.0	-48130.0	-5814911.0
16	14	43	27	33	206.0	-820534.0	-48725.0	-5815794.0
16	14	43	27	33	208.0	-857114.0	-48994.0	-5815907.0
16	14	43	27	33	209.0	-908173.0	-49325.0	-5815212.0
16	14	43	27	34	210.0	-905492.0	-49064.0	-5815719.0
16	14	43	27	34	211.0	-589021.0	-48549.0	-5816682.0
16	14	43	27	34	212.0	-452823.0	-48419.0	-5816246.0
16	14	43	27	35	213.0	-462784.0	-47924.0	-5815522.0
16	14	43	27	35	214.0	-460057.0	-47687.0	-5815103.0
16	14	43	27	35	215.0	-391708.0	-47564.0	-5816047.0
16	14	43	27	36	216.0	-279179.0	-46913.0	-5816367.0
16	14	43	27	36	217.0	-183428.0	-47041.0	-5815667.0
16	14	43	27	36	218.0	-106891.0	-46921.0	-5815241.0
16	14	43	27	37	219.0	-90432.0	-46522.0	-5816158.0
16	14	43	27	37	220.0	-60911.0	-46288.0	-5816464.0
16	14	43	27	37	221.0	58852.0	-46819.0	-5815747.0
16	14	43	27	38	222.0	188465.0	-46729.0	-5815177.0
16	14	43	27	38	223.0	254403.0	-46636.0	-5815657.0
16	14	43	27	38	224.0	167386.0	-46406.0	-5816555.0
16	14	43	27	38	225.0	64798.0	-46097.0	-5815957.0
16	14	43	27	39	226.0	1706.0	-46069.0	-5815351.0
16	14	43	27	72	227.0	-44907.0	-45841.0	-5815123.0
16	14	43	27	72	228.0	-115077.0	-45539.0	-5816263.0
16	14	43	27	72	230.0	-217269.0	-46627.0	-5815359.0
16	14	43	27	73	231.0	-253329.0	-46899.0	-5815137.0
16	14	43	27	73	232.0	-283204.0	-48057.0	-5816448.0
16	14	43	27	73	233.0	-269523.0	-48878.0	-5816330.0
16	14	43	27	74	234.0	-218857.0	-48991.0	-5815660.0
16	14	43	27	74	235.0	-149852.0	-48814.0	-5815123.0
16	14	43	27	74	236.0	-106405.0	-48538.0	-5815829.0
16	14	43	27	75	237.0	-65375.0	-48953.0	-5816446.0
16	14	43	27	75	238.0	-27102.0	-49317.0	-5815822.0
16	14	43	27	75	239.0	23241.0	-50002.0	-5815179.0
16	14	43	27	75	240.0	115601.0	-49894.0	-5815130.0
16	14	43	27	76	241.0	233841.0	-50077.0	-5815908.0
16	14	43	27	129	242.0	361851.0	-50477.0	-5815458.0
16	14	43	27	130	243.0	513612.0	-50561.0	-5814816.0
16	14	43	27	130	244.0	638871.0	-50080.0	-5814792.0
16	14	43	27	131	245.0	653703.0	-50754.0	-5815585.0
16	14	43	27	131	246.0	612500.0	-51334.0	-5815097.0
16	14	43	27	131	247.0	506613.0	-51364.0	-5814720.0
16	14	43	27	132	248.0	386203.0	-51953.0	-5815804.0
16	14	43	27	132	249.0	308028.0	-52181.0	-5815850.0
16	14	43	27	132	250.0	234945.0	-52649.0	-5815166.0
16	14	43	27	133	251.0	144422.0	-53431.0	-5815074.0
16	14	43	27	133	253.0	-148559.0	-52852.0	-5816182.0
16	14	43	27	133	254.0	-366952.0	-53471.0	-5815484.0
16	14	43	27	133	255.0	-509780.0	-54426.0	-5814943.0
16	14	43	27	134	0.0	-623969.0	-55330.0	-5815777.0
16	14	43	27	134	1.0	-768634.0	-55782.0	-5816369.0
16	14	43	27	135	2.0	-857501.0	-56049.0	-5815704.0
16	14	43	27	135	3.0	-875317.0	-55982.0	-5815089.0
16	14	43	27	135	4.0	-829775.0	-56191.0	-5815198.0
16	14	43	27	136	5.0	-751041.0	-56023.0	-5816332.0
16	14	43	27	136	6.0	-661688.0	-55427.0	-5815831.0
16	14	43	27	136	7.0	-592044.0	-56191.0	-5815254.0
16	14	43	27	136	8.0	-526957.0	-57838.0	-5814745.0
16	14	43	27	137	9.0	-440207.0	-57847.0	-5815916.0
16	14	43	27	137	10.0	-325580.0	-57472.0	-5816045.0
16	14	43	27	137	11.0	-213393.0	-57321.0	-5815467.0
16	14	43	27	137	12.0	-143270.0	-57708.0	-5814882.0
16	14	43	27	138	13.0	-79225.0	-57818.0	-5815761.0
16	14	43	27	138	14.0	-55337.0	-57958.0	-5816209.0
16	14	43	27	138	15.0	47659.0	-58001.0	-5815653.0
16	14	43	27	139	16.0	215669.0	-57799.0	-5814966.0
16	14	43	27	139	17.0	337749.0	-57619.0	-5815409.0
16	14	43	27	139	19.0	379516.0	-57571.0	-5815811.0
16	14	43	27	140	20.0	331396.0	-58106.0	-5815145.0
16	14	43	27	140	21.0	312602.0	-59622.0	-5814809.0
16	14	43	27	140	22.0	317970.0	-59549.0	-5816019.0
16	14	43	27	141	23.0	313963.0	-58972.0	-5816129.0
16	14	43	27	141	24.0	331877.0	-58872.0	-5815470.0
16	14	43	27	187	25.0	350398.0	-58699.0	-5814909.0
16	14	43	27	188	26.0	395925.0	-58527.0	-5815796.0
16	14	43	27	188	27.0	450577.0	-57906.0	-5816353.0
16	14	43	27	188	28.0	481506.0	-56671.0	-5815731.0
16	14	43	27	189	29.0	457265.0	-56957.0	-5815127.0
16	14	43	27	189	30.0	373563.0	-57869.0	-5815727.0
16	14	43	27	189	31.0	262886.0	-57471.0	-5816622.0
16	14	43	27	189	32.0	148328.0	-56958.0	-5816072.0
16	14	43	27	190	33.0	34399.0	-57047.0	-5815363.0
16	14	43	27	190	34.0	-77662.0	-56863.0	-5815419.0
16	14	43	27	190	35.0	-192903.0	-57573.0	-5816488.0
16	14	43	27	190	36.0	-312385.0	-56996.0	-5816160.0
16	14	43	27	191	37.0	-401654.0	-55867.0	-5815440.0
16	14	43	27	191	38.0	-452115.0	-54616.0	-5814975.0
16	14	43	27	191	39.0	-475538.0	-54235.0	-5815806.0
16	14	43	27	192	40.0	-467932.0	-53292.0	-5816237.0
16	14	43	27	192	42.0	-363346.0	-52701.0	-5815131.0
16	14	43	27	192	43.0	-268134.0	-52957.0	-5815983.0
16	14	43	27	193	44.0	-162822.0	-52378.0	-5816287.0
16	14	43	27	193	45.0	-82941.0	-51745.0	-5815604.0
16	14	43	27	193	46.0	-28536.0	-51546.0	-5815057.0
16	14	43	27	193	47.0	43323.0	-51015.0	-5815311.0
16	14	43	27	253	48.0	107801.0	-49719.0	-5816387.0
16	14	43	27	297	49.0	158869.0	-48324.0	-5815839.0
16	14	43	27	298	50.0	214824.0	-46461.0	-5815247.0
16	14	43	27	298	51.0	258574.0	-45569.0	-5814987.0
16	14	43	27	298	52.0	260575.0	-45411.0	-5816352.0
16	14	43	27	299	53.0	196394.0	-45595.0	-5816213.0
16	14	43	27	299	54.0	175879.0	-45256.0	-5815580.0
16	14	43	27	299	55.0	176540.0	-44222.0	-5815031.0
16	14	43	27	299	56.0	140189.0	-43290.0	-5815906.0
16	14	43	27	300	57.0	45587.0	-42985.0	-5816419.0
16	14	43	27	300	58.0	14800.0	-42917.0	-5815806.0
16	14	43	27	300	59.0	-31707.0	-42589.0	-5815231.0
16	14	43	27	300	60.0	-95492.0	-42172.0	-5815716.0
16	14	43	27	301	61.0	-808460.0	-41368.0	-5816749.0
16	14	43	27	301	62.0	-2219101.0	-40266.0	-5816094.0
16	14	43	27	301	87.0	88059.0	-26834.0	-5816723.0
16	14	43	27	302	88.0	240696.0	-26609.0	-5816188.0
16	14	43	27	352	89.0	263749.0	-26204.0	-5815542.0
16	14	43	27	406	90.0	121818.0	-24964.0	-5815622.0
16	14	43	27	406	91.0	-129395.0	-23855.0	-5816867.0
16	14	43	27	407	92.0	-352328.0	-23409.0	-5816483.0
16	14	43	27	407	93.0	-463881.0	-22787.0	-5815857.0
16	14	43	27	407	94.0	-466820.0	-22149.0	-5815689.0
16	14	43	27	407	95.0	-391725.0	-22227.0	-5816746.0
16	14	43	27	408	96.0	-325895.0	-21707.0	-5816482.0
16	14	43	27	408	97.0	-368214.0	-21431.0	-5815819.0
16	14	43	27	408	98.0	-413876.0	-21009.0	-5815179.0
16	14	43	27	409	99.0	-409189.0	-20199.0	-5815429.0
16	14	43	27	409	100.0	-288636.0	-19552.0	-5816584.0
16	14	43	27	409	101.0	-72407.0	-19706.0	-5816117.0
16	14	43	27	410	102.0	102158.0	-19868.0	-5815531.0
16	14	43	27	410	109.0	804228.0	-16331.0	-5815919.0
16	14	43	27	410	131.0	-508318.0	-9212.0	-5815297.0
16	14	43	27	410	154.0	295979.0	-2121.0	-5815706.0
16	14	43	27	411	155.0	194089.0	-2469.0	-5816148.0
16	14	43	27	411	156.0	110917.0	-2749.0	-5815464.0
16	14	43	27	411	157.0	60175.0	-2352.0	-5815032.0
16	14	43	27	412	158.0	55204.0	-2418.0	-5816043.0
16	14	43	27	412	159.0	73113.0	-1987.0	-5816394.0
16	14	43	27	458	160.0	87399.0	-1211.0	-5815696.0
16	14	43	27	458	161.0	94901.0	-438.0	-5815114.0
16	14	43	27	458	162.0	98158.0	204.0	-5815666.0
16	14	43	27	459	163.0	102421.0	108.0	-5816557.0
16	14	43	27	459	164.0	107420.0	820.0	-5815986.0
16	14	43	27	459	165.0	107338.0	1403.0	-5815319.0
16	14	43	27	459	166.0	97098.0	1400.0	-5815156.0
16	14	43	27	460	167.0	73859.0	1741.0	-5816372.0
16	14	43	27	460	168.0	51949.0	1155.0	-5816238.0
16	14	43	27	460	169.0	34990.0	682.0	-5815539.0
16	14	43	27	461	170.0	18064.0	586.0	-5815125.0
16	14	43	27	461	171.0	-1044.0	1073.0	-5816168.0
16	14	43	27	461	172.0	-31004.0	1739.0	-5816303.0
16	14	43	27	461	173.0	-63741.0	2348.0	-5815623.0
16	14	43	27	462	174.0	-83817.0	2056.0	-5815073.0
16	14	43	27	462	176.0	-95853.0	2364.0	-5816619.0
16	14	43	27	462	177.0	-106964.0	2262.0	-5815962.0
16	14	43	27	463	178.0	-121394.0	1854.0	-5815322.0
16	14	43	27	463	179.0	-139797.0	1818.0	-5814955.0
16	14	43	27	463	180.0	-163270.0	1763.0	-5815757.0
16	14	43	27	463	181.0	-181824.0	2429.0	-5815412.0
16	14	43	27	464	182.0	-193280.0	2823.0	-5814871.0
16	14	43	27	516	183.0	-191619.0	3453.0	-5815582.0
16	14	43	27	516	184.0	-176374.0	3824.0	-5816274.0
16	14	43	27	516	185.0	-163907.0	4596.0	-5815614.0
16	14	43	27	517	186.0	-159042.0	3828.0	-5815000.0
16	14	43	27	517	187.0	-141842.0	4144.0	-5814798.0
16	14	43	27	517	188.0	-118367.0	4248.0	-5816074.0
16	14	43	27	518	189.0	-160262.0	4313.0	-5815792.0
16	14	43	27	518	190.0	-316351.0	4396.0	-5815179.0
16	14	43	27	518	191.0	-537713.0	4324.0	-5814675.0
16	14	43	27	518	192.0	-733582.0	3588.0	-5815382.0
16	14	43	27	519	193.0	-833172.0	3754.0	-5815155.0
16	14	43	27	519	194.0	-838461.0	3681.0	-5814547.0
16	14	43	27	519	195.0	-737502.0	4019.0	-5814161.0
16	14	43	27	520	196.0	-574150.0	5118.0	-5815082.0
16	14	43	27	520	197.0	-402847.0	5447.0	-5814832.0
16	14	43	27	520	199.0	-7694.0	5711.0	-5813922.0
16	14	43	27	520	200.0	170934.0	5681.0	-5814731.0
16	14	43	27	521	201.0	298844.0	5604.0	-5814399.0
16	14	43	27	521	202.0	362273.0	6198.0	-5814147.0
16	14	43	27	521	203.0	358771.0	6348.0	-5815249.0
16	14	43	27	522	204.0	335096.0	6875.0	-5815185.0
16	14	43	27	522	205.0	285044.0	6816.0	-5814492.0
16	14	43	27	522	206.0	195273.0	7391.0	-5813974.0
16	14	43	27	572	207.0	90033.0	8248.0	-5814823.0
16	14	43	27	573	208.0	17406.0	8261.0	-5815633.0
16	14	43	27	573	209.0	7567.0	8660.0	-5814981.0
16	14	43	27	573	210.0	32499.0	8534.0	-5814392.0
16	14	43	27	574	211.0	32014.0	8591.0	-5813932.0
16	14	43	27	574	212.0	-19649.0	8686.0	-5814592.0
16	14	43	27	574	213.0	-96411.0	9380.0	-5814259.0
16	14	43	27	575	214.0	-158711.0	9531.0	-5813807.0
16	14	43	27	575	215.0	-183501.0	9002.0	-5814847.0
16	14	43	27	575	216.0	-160404.0	8846.0	-5815424.0
16	14	43	27	575	217.0	-108411.0	9013.0	-5814744.0
16	14	43	27	576	218.0	-46017.0	9469.0	-5814200.0
16	14	43	27	576	219.0	9831.0	9648.0	-5814601.0
16	14	43	27	576	221.0	118453.0	11068.0	-5814771.0
16	14	43	27	577	222.0	134437.0	10963.0	-5814167.0
16	14	43	27	577	223.0	144579.0	10786.0	-5814241.0
16	14	43	27	577	224.0	155785.0	10859.0	-5815620.0
16	14	43	27	577	225.0	163144.0	11084.0	-5815174.0
16	14	43	27	578	226.0	162313.0	10780.0	-5814564.0
16	14	43	27	578	227.0	168469.0	11340.0	-5813957.0
16	14	43	27	578	228.0	185978.0	12036.0	-5815026.0
16	14	43	27	579	229.0	211251.0	12749.0	-5815464.0
16	14	43	27	579	230.0	234919.0	13420.0	-5814864.0
16	14	43	27	579	231.0	246461.0	13543.0	-5814152.0
16	14	43	27	580	232.0	243986.0	13361.0	-5814349.0
16	14	43	27	580	233.0	228479.0	13104.0	-5815404.0
16	14	43	27	580	234.0	193229.0	12622.0	-5814962.0
16	14	43	27	580	235.0	149567.0	12527.0	-5814312.0
16	14	43	27	581	236.0	97466.0	12375.0	-5814318.0
16	14	43	27	581	237.0	34556.0	12021.0	-5815524.0
16	14	43	27	581	238.0	-38797.0	11833.0	-5815246.0
16	14	43	27	629	239.0	-114828.0	11840.0	-5814581.0
16	14	43	27	629	240.0	-169713.0	12244.0	-5814164.0
16	14	43	27	629	241.0	-204684.0	11772.0	-5815318.0
16	14	43	27	630	242.0	-215216.0	12400.0	-5815365.0
16	14	43	27	630	244.0	-171335.0	12055.0	-5814006.0
16	14	43	27	630	245.0	-135645.0	11363.0	-5814547.0
16	14	43	27	631	246.0	-98800.0	11454.0	-5815339.0
16	14	43	27	631	247.0	-65820.0	12092.0	-5814808.0
16	14	43	27	631	248.0	-41922.0	12614.0	-5814113.0
16	14	43	27	632	249.0	-17695.0	12769.0	-5814327.0
16	14	43	27	632	250.0	4325.0	12609.0	-5815662.0
16	14	43	27	632	251.0	25252.0	12529.0	-5815374.0
16	14	43	27	632	252.0	47287.0	12899.0	-5814674.0
16	14	43	27	633	253.0	65716.0	12951.0	-5814615.0
16	14	43	27	703	254.0	79524.0	13024.0	-5815893.0
16	14	43	27	703	255.0	103316.0	12753.0	-5815724.0
16	14	43	27	704	0.0	128111.0	12818.0	-5815038.0
16	14	43	27	704	1.0	150698.0	12536.0	-5814586.0
16	14	43	27	704	2.0	173668.0	12742.0	-5815468.0
16	14	43	27	705	3.0	196684.0	12463.0	-5815897.0
16	14	43	27	705	4.0	213196.0	12253.0	-5815194.0
16	14	43	27	705	5.0	234830.0	13442.0	-5814622.0
16	14	43	27	706	6.0	268089.0	14195.0	-5815036.0
16	14	43	27	706	7.0	285993.0	14641.0	-5815892.0
16	14	43	27	706	8.0	290623.0	14143.0	-5815274.0
16	14	43	27	706	10.0	260129.0	14719.0	-5814548.0
16	14	43	27	707	11.0	215822.0	14413.0	-5815775.0
16	14	43	27	707	12.0	163304.0	14591.0	-5815401.0
16	14	43	27	707	13.0	122586.0	17071.0	-5814799.0
16	14	43	27	708	33.0	-135497.0	75568.0	-5814312.0
16	14	43	27	708	34.0	-189849.0	80265.0	-5813659.0
16	14	43	27	708	35.0	-215917.0	86005.0	-5814004.0
16	14	43	27	708	36.0	-185794.0	91421.0	-5814456.0
16	14	43	27	709	37.0	-149651.0	96843.0	-5813894.0
16	14	43	27	709	38.0	-97146.0	103272.0	-5813726.0
16	14	43	27	709	39.0	-19284.0	109183.0	-5815034.0
16	14	43	27	769	40.0	12528.0	115461.0	-5814779.0
16	14	43	27	770	41.0	30910.0	121774.0	-5814102.0
16	14	43	27	770	42.0	54468.0	127088.0	-5813716.0
16	14	43	27	770	43.0	74227.0	132805.0	-5814802.0
16	14	43	27	770	44.0	68683.0	138381.0	-5814795.0
16	14	43	27	771	45.0	72815.0	143678.0	-5814118.0
16	14	43	27	771	46.0	100356.0	149307.0	-5813590.0
16	14	43	27	771	47.0	145353.0	154956.0	-5814341.0
16	14	43	27	772	48.0	179759.0	160988.0	-5814612.0
16	14	43	27	772	49.0	196654.0	166271.0	-5813977.0
16	14	43	27	772	50.0	211041.0	170629.0	-5813356.0
16	14	43	27	772	51.0	218228.0	175786.0	-5813107.0
16	14	43	27	773	52.0	199696.0	180231.0	-5814097.0
16	14	43	27	773	53.0	159236.0	184071.0	-5813734.0
16	14	43	27	773	55.0	93076.0	191515.0	-5814335.0
16	14	43	27	774	63.0	-7379.0	208091.0	-5813391.0
16	14	43	27	774	70.0	45436.0	200953.0	-5813467.0
16	14	43	27	774	71.0	63809.0	197991.0	-5813092.0
16	14	43	27	775	72.0	92794.0	194853.0	-5814067.0
16	14	43	27	775	73.0	122084.0	191991.0	-5813824.0
16	14	43	27	775	74.0	133639.0	188942.0	-5813200.0
16	14	43	27	775	75.0	125378.0	185715.0	-5813155.0
16	14	43	27	776	76.0	111026.0	182057.0	-5813898.0
16	14	43	27	776	77.0	97913.0	178941.0	-5813427.0
16	14	43	27	776	78.0	88251.0	175569.0	-5813252.0
16	14	43	27	776	79.0	71957.0	170149.0	-5814478.0
16	14	43	27	777	80.0	53524.0	165364.0	-5814351.0
16	14	43	27	777	81.0	36198.0	160851.0	-5813660.0
16	14	43	27	777	82.0	25600.0	155099.0	-5813051.0
16	14	43	27	777	83.0	17350.0	149226.0	-5812839.0
16	14	43	27	778	84.0	-13017.0	143768.0	-5813505.0
16	14	43	27	778	85.0	-43284.0	138608.0	-5813053.0
16	14	43	27	778	86.0	-67938.0	133399.0	-5812882.0
16	14	43	27	850	87.0	-99995.0	127943.0	-5814112.0
16	14	43	27	851	88.0	-133871.0	123208.0	-5814024.0
16	14	43	27	851	89.0	-162854.0	118937.0	-5813333.0
16	14	43	27	851	90.0	-188850.0	114296.0	-5813050.0
16	14	43	27	852	91.0	-211781.0	108756.0	-5814351.0
16	14	43	27	852	92.0	-223199.0	103870.0	-5814517.0
16	14	43	27	852	93.0	-210728.0	98408.0	-5813813.0
16	14	43	27	852	94.0	-212346.0	92076.0	-5813283.0
16	14	43	27	853	95.0	-290650.0	87079.0	-5814003.0
16	14	43	27	853	96.0	-454330.0	83095.0	-5814940.0
16	14	43	27	853	97.0	-562637.0	78444.0	-5814299.0
16	14	43	27	853	98.0	-452165.0	73013.0	-5813717.0
16	14	43	27	854	99.0	-161045.0	68064.0	-5813225.0
16	14	43	27	854	100.0	236705.0	63295.0	-5814004.0
16	14	43	27	854	101.0	599566.0	58139.0	-5813891.0
16	14	43	27	855	102.0	802792.0	53303.0	-5813332.0
16	14	43	27	855	103.0	867764.0	49096.0	-5813426.0
16	14	43	27	855	104.0	812234.0	45572.0	-5814761.0
16	14	43	27	855	105.0	650281.0	41794.0	-5814310.0
16	14	43	27	856	106.0	460212.0	38039.0	-5813682.0
16	14	43	27	856	107.0	274189.0	34408.0	-5813654.0
16	14	43	27	856	108.0	57435.0	31197.0	-5814778.0
16	14	43	27	857	109.0	-172006.0	26616.0	-5814282.0
16	14	43	27	857	110.0	-371327.0	22804.0	-5813670.0
16	14	43	27	857	111.0	-520544.0	20355.0	-5813102.0
16	14	43	27	857	112.0	-593202.0	17261.0	-5813720.0
16	14	43	27	858	113.0	-584946.0	13485.0	-5813629.0
16	14	43	27	858	114.0	-498464.0	9918.0	-5813042.0
16	14	43	27	858	115.0	-349449.0	6928.0	-5812957.0
16	14	43	27	859	116.0	-179289.0	3875.0	-5814305.0
16	14	43	27	859	117.0	-10683.0	1351.0	-5813979.0
16	14	43	27	859	118.0	141383.0	-159.0	-5813404.0
16	14	43	27	859	119.0	256659.0	-1262.0	-5812858.0
16	14	43	27	860	120.0	323171.0	-2878.0	-5813408.0
16	14	43	27	860	121.0	331636.0	-4607.0	-5813374.0
16	14	43	27	860	122.0	301018.0	-6221.0	-5812832.0
16	14	43	27	861	123.0	231528.0	-7980.0	-5813508.0
16	14	43	27	931	124.0	142798.0	-9860.0	-5814192.0
16	14	43	27	931	125.0	59403.0	-11954.0	-5813531.0
16	14	43	27	932	126.0	6048.0	-13154.0	-5812949.0
16	14	43	27	932	127.0	989.0	-14612.0	-5813197.0
16	14	43	27	933	128.0	19660.0	-16239.0	-5814064.0
16	14	43	27	933	129.0	52008.0	-17737.0	-5813468.0
16	14	43	27	933	130.0	98912.0	-19459.0	-5812867.0
16	14	43	27	934	131.0	150921.0	-21209.0	-5812217.0
16	14	43	27	934	132.0	172214.0	-23134.0	-5812633.0
16	14	43	27	934	133.0	152567.0	-23954.0	-5812814.0
16	14	43	27	935	134.0	138016.0	-24352.0	-5812254.0
16	14	43	27	935	135.0	126993.0	-25526.0	-5812519.0
16	14	43	27	935	136.0	94958.0	-26819.0	-5813637.0
16	14	43	27	936	137.0	48751.0	-27367.0	-5813092.0
16	14	43	27	936	138.0	-25433.0	-28291.0	-5812484.0
16	14	43	27	936	139.0	-87889.0	-29457.0	-5812750.0
16	14	43	27	936	140.0	-94560.0	-30702.0	-5813816.0
16	14	43	27	937	141.0	-99959.0	-31226.0	-5813284.0
16	14	43	27	937	142.0	-119066.0	-32253.0	-5812671.0
16	14	43	27	937	143.0	-137171.0	-33697.0	-5812352.0
16	14	43	27	937	144.0	-143986.0	-35061.0	-5813679.0
16	14	43	27	938	145.0	-145498.0	-36764.0	-5813634.0
16	14	43	27	938	146.0	-153502.0	-39243.0	-5812974.0
16	14	43	27	938	147.0	-165071.0	-41415.0	-5812306.0
16	14	43	27	939	148.0	-180004.0	-43559.0	-5812262.0
16	14	43	27	939	149.0	-178656.0	-44690.0	-5812814.0
16	14	43	27	939	150.0	-161638.0	-46539.0	-5812275.0
16	14	43	27	939	151.0	-138454.0	-47810.0	-5811892.0
16	14	43	27	940	152.0	-103404.0	-49669.0	-5813048.0
16	14	43	27	940	153.0	-60755.0	-52141.0	-5813091.0
16	14	43	27	940	154.0	-22836.0	-54869.0	-5812437.0
16	14	43	27	941	155.0	-2716.0	-56359.0	-5811995.0
16	14	43	27	941	156.0	6453.0	-57302.0	-5812897.0
16	14	43	27	942	157.0	14125.0	-58195.0	-5813107.0
16	14	43	27	942	158.0	25850.0	-59427.0	-5812429.0
16	14	43	27	942	159.0	38769.0	-61073.0	-5811877.0
16	14	43	27	943	160.0	46601.0	-62940.0	-5812659.0
16	14	43	27	943	161.0	90514.0	-65184.0	-5813396.0
16	14	43	27	943	162.0	181296.0	-67556.0	-5812789.0
16	14	43	27	944	163.0	258481.0	-68764.0	-5812177.0
16	14	43	27	944	164.0	293093.0	-68657.0	-5811857.0
16	14	43	27	945	165.0	299158.0	-69342.0	-5813152.0
16	14	43	27	945	166.0	305087.0	-71240.0	-5812971.0
16	14	43	27	946	167.0	309425.0	-72316.0	-5812380.0
16	14	43	27	946	168.0	304708.0	-73606.0	-5811866.0
16	14	43	28	20	169.0	279207.0	-75493.0	-5812977.0
16	14	43	28	21	170.0	231419.0	-76309.0	-5813217.0
16	14	43	28	21	171.0	162254.0	-76476.0	-5812651.0
16	14	43	28	21	172.0	82623.0	-76872.0	-5811979.0
16	14	43	28	22	173.0	1944.0	-77576.0	-5812679.0
16	14	43	28	22	174.0	-54787.0	-78480.0	-5813363.0
16	14	43	28	22	175.0	-83828.0	-79749.0	-5812850.0
16	14	43	28	22	176.0	-102109.0	-80574.0	-5812168.0
16	14	43	28	22	177.0	-116283.0	-81187.0	-5812627.0
16	14	43	28	23	178.0	-118211.0	-81409.0	-5813758.0
16	14	43	28	23	179.0	-112281.0	-80991.0	-5813316.0
16	14	43	28	23	180.0	-105429.0	-81761.0	-5812602.0
16	14	43	28	23	181.0	-109526.0	-82073.0	-5812121.0
16	14	43	28	24	182.0	-130677.0	-82281.0	-5813139.0
16	14	43	28	24	183.0	-170646.0	-83203.0	-5813623.0
16	14	43	28	24	184.0	-232391.0	-84103.0	-5812961.0
16	14	43	28	25	185.0	-305736.0	-83400.0	-5812345.0
16	14	43	28	25	186.0	-383832.0	-82625.0	-5812922.0
16	14	43	28	25	187.0	-450806.0	-82382.0	-5813836.0
16	14	43	28	26	188.0	-497837.0	-81946.0	-5813263.0
16	14	43	28	26	189.0	-522547.0	-82166.0	-5812626.0
16	14	43	28	26	190.0	-517983.0	-82090.0	-5812767.0
16	14	43	28	26	191.0	-487092.0	-82277.0	-5813829.0
16	14	43	28	27	192.0	-406338.0	-82464.0	-5813382.0
16	14	43	28	27	193.0	-311004.0	-82257.0	-5812712.0
16	14	43	28	27	194.0	-247336.0	-81020.0	-5812528.0
16	14	43	28	28	195.0	-194791.0	-79781.0	-5813738.0
16	14	43	28	28	196.0	-177574.0	-79724.0	-5813641.0
16	14	43	28	28	197.0	-148256.0	-79916.0	-5812950.0
16	14	43	28	28	198.0	-85738.0	-79883.0	-5812403.0
16	14	43	28	29	199.0	11254.0	-80057.0	-5813005.0
16	14	43	28	29	200.0	114423.0	-79702.0	-5814039.0
16	14	43	28	29	201.0	207449.0	-78486.0	-5813411.0
16	14	43	28	30	202.0	278856.0	-78598.0	-5812834.0
16	14	43	28	30	203.0	332378.0	-78936.0	-5812454.0
16	14	43	28	30	204.0	372308.0	-77991.0	-5813122.0
16	14	43	28	30	205.0	407773.0	-78275.0	-5812795.0
16	14	43	28	31	206.0	438882.0	-79546.0	-5812372.0
16	14	43	28	31	207.0	460328.0	-79736.0	-5813340.0
16	14	43	28	32	208.0	474785.0	-79422.0	-5813681.0
16	14	43	28	32	209.0	487219.0	-78362.0	-5812979.0
16	14	43	28	32	210.0	498951.0	-78376.0	-5812402.0
16	14	43	28	33	211.0	503936.0	-77994.0	-5812165.0
16	14	43	28	33	212.0	506983.0	-77187.0	-5813372.0
16	14	43	28	33	213.0	500086.0	-77017.0	-5813082.0
16	14	43	28	34	214.0	479673.0	-77516.0	-5812457.0
16	14	43	28	34	215.0	448734.0	-77167.0	-5812102.0
16	14	43	28	90	216.0	396166.0	-76666.0	-5813515.0
16	14	43	28	91	217.0	335133.0	-77382.0	-5813501.0
16	14	43	28	91	218.0	264432.0	-77276.0	-5812861.0
16	14	43	28	91	219.0	190719.0	-76851.0	-5812316.0
16	14	43	28	92	220.0	117074.0	-77066.0	-5812976.0
16	14	43	28	92	221.0	51878.0	-77691.0	-5813138.0
16	14	43	28	92	222.0	-15816.0	-77796.0	-5812551.0
16	14	43	28	93	223.0	-96736.0	-77137.0	-5812019.0
16	14	43	28	93	224.0	-180992.0	-76192.0	-5813099.0
16	14	43	28	93	225.0	-259788.0	-76368.0	-5813334.0
16	14	43	28	94	226.0	-325804.0	-77069.0	-5812704.0
16	14	43	28	94	227.0	-375859.0	-77669.0	-5812037.0
16	14	43	28	94	228.0	-409448.0	-78280.0	-5812457.0
16	14	43	28	94	229.0	-427787.0	-79282.0	-5812787.0
16	14	43	28	95	230.0	-439421.0	-79698.0	-5812233.0
16	14	43	28	95	231.0	-446348.0	-78697.0	-5811657.0
16	14	43	28	95	232.0	-441755.0	-79086.0	-5812648.0
16	14	43	28	96	233.0	-430434.0	-79546.0	-5813034.0
16	14	43	28	96	234.0	-425380.0	-79369.0	-5812447.0
16	14	43	28	96	235.0	-425807.0	-78749.0	-5811912.0
16	14	43	28	96	236.0	-428166.0	-79292.0	-5812570.0
16	14	43	28	97	237.0	-416559.0	-79694.0	-5812598.0
16	14	43	28	97	238.0	-389259.0	-79776.0	-5812019.0
16	14	43	28	97	239.0	-345086.0	-79611.0	-5811930.0
16	14	43	28	98	240.0	-289680.0	-80307.0	-5813187.0
16	14	43	28	98	241.0	-231567.0	-79822.0	-5812811.0
16	14	43	28	98	242.0	-168354.0	-80332.0	-5812230.0
16	14	43	28	99	243.0	-104836.0	-81572.0	-5811595.0
16	14	43	28	162	244.0	-33131.0	-82774.0	-5812106.0
16	14	43	28	162	245.0	42595.0	-82137.0	-5812361.0
16	14	43	28	162	246.0	113546.0	-81241.0	-5811803.0
16	14	43	28	162	247.0	177283.0	-81635.0	-5811850.0
16	14	43	28	162	248.0	231568.0	-81756.0	-5813139.0
16	14	43	28	163	249.0	285066.0	-81632.0	-5812718.0
16	14	43	28	163	250.0	345076.0	-82136.0	-5812101.0
16	14	43	28	163	251.0	398186.0	-83684.0	-5811524.0
16	14	43	28	163	252.0	432838.0	-84425.0	-5812077.0
16	14	43	28	163	253.0	440536.0	-84551.0	-5812184.0
16	14	43	28	164	254.0	433547.0	-84081.0	-5811605.0
16	14	43	28	164	255.0	414848.0	-83953.0	-5811821.0
16	14	43	28	164	0.0	386897.0	-83473.0	-5812898.0
16	14	43	28	164	1.0	364030.0	-83281.0	-5812381.0
16	14	43	28	164	2.0	351856.0	-83821.0	-5811791.0
16	14	43	28	165	3.0	334659.0	-84794.0	-5811348.0
16	14	43	28	165	4.0	279756.0	-84734.0	-5812432.0
16	14	43	28	165	5.0	195299.0	-83074.0	-5812397.0
16	14	43	28	165	6.0	106049.0	-82160.0	-5811754.0
16	14	43	28	165	7.0	22009.0	-82316.0	-5811152.0
16	14	43	28	166	8.0	-55406.0	-81517.0	-5811876.0
16	14	43	28	166	9.0	-131399.0	-80856.0	-5812698.0
16	14	43	28	166	10.0	-195468.0	-81211.0	-5812126.0
16	14	43	28	166	11.0	-242151.0	-80956.0	-5811514.0
16	14	43	28	166	12.0	-270464.0	-80301.0	-5811902.0
16	14	43	28	166	13.0	-286647.0	-79463.0	-5812184.0
16	14	43	28	167	14.0	-294153.0	-79108.0	-5811631.0
16	14	43	28	167	15.0	-276932.0	-78205.0	-5811020.0
16	14	43	28	167	16.0	-247979.0	-78119.0	-5811520.0
16	14	43	28	167	17.0	-221052.0	-77842.0	-5811774.0
16	14	43	28	167	18.0	-172242.0	-77989.0	-5811228.0
16	14	43	28	168	19.0	-133964.0	-77111.0	-5811075.0
16	14	43	28	168	20.0	-114380.0	-75658.0	-5812486.0
16	14	43	28	168	21.0	-76241.0	-74384.0	-5812234.0
16	14	43	28	168	22.0	-12952.0	-73650.0	-5811612.0
16	14	43	28	168	23.0	48805.0	-73274.0	-5810973.0
16	14	43	28	168	24.0	87868.0	-72733.0	-5811396.0
16	14	43	28	232	25.0	110743.0	-72469.0	-5811701.0
16	14	43	28	233	26.0	118982.0	-71294.0	-5811137.0
16	14	43	28	233	27.0	112917.0	-69744.0	-5811340.0
16	14	43	28	234	28.0	82696.0	-68852.0	-5812564.0
16	14	43	28	235	29.0	49596.0	-68182.0	-5812084.0
16	14	43	28	235	30.0	21744.0	-67678.0	-5811477.0
16	14	43	28	236	31.0	12289.0	-67792.0	-5811458.0
16	14	43	28	236	32.0	12983.0	-67911.0	-5812904.0
16	14	43	28	237	33.0	13471.0	-67103.0	-5812592.0
16	14	43	28	237	34.0	19153.0	-66010.0	-5811961.0
16	14	43	28	238	35.0	38768.0	-64291.0	-5811280.0
16	14	43	28	238	36.0	75049.0	-62530.0	-5811455.0
16	14	43	28	238	37.0	109059.0	-61189.0	-5812516.0
16	14	43	28	239	38.0	136261.0	-60269.0	-5812080.0
16	14	43	28	239	39.0	154990.0	-59191.0	-5811456.0
16	14	43	28	240	40.0	156887.0	-58442.0	-5811300.0
16	14	43	28	241	41.0	149941.0	-57997.0	-5812600.0
16	14	43	28	241	42.0	140847.0	-57269.0	-5812327.0
16	14	43	28	242	43.0	123999.0	-55987.0	-5811694.0
16	14	43	28	243	44.0	100053.0	-54548.0	-5811399.0
16	14	43	28	243	45.0	75110.0	-53412.0	-5812457.0
16	14	43	28	244	46.0	47007.0	-52592.0	-5812215.0
16	14	43	28	245	47.0	12108.0	-51838.0	-5811574.0
16	14	43	28	246	48.0	-36014.0	-51341.0	-5810871.0
16	14	43	28	246	49.0	-86491.0	-50441.0	-5811152.0
16	14	43	28	247	50.0	-132381.0	-48210.0	-5812014.0
16	14	43	28	247	51.0	-157110.0	-47211.0	-5811555.0
16	14	43	28	248	52.0	-172450.0	-46239.0	-5810829.0
16	14	43	28	249	53.0	-173995.0	-45137.0	-5810706.0
16	14	43	28	249	54.0	-160704.0	-44092.0	-5811987.0
16	14	43	28	250	55.0	-134126.0	-43526.0	-5811934.0
16	14	43	28	250	56.0	-96816.0	-43055.0	-5811224.0
16	14	43	28	250	57.0	-53221.0	-41773.0	-5810756.0
16	14	43	28	251	58.0	4669.0	-40078.0	-5811672.0
16	14	43	28	251	59.0	84956.0	-38828.0	-5812353.0
16	14	43	28	252	60.0	155056.0	-37742.0	-5811709.0
16	14	43	28	252	61.0	210683.0	-37225.0	-5811182.0
16	14	43	28	253	62.0	243903.0	-36541.0	-5811641.0
16	14	43	28	253	63.0	261614.0	-36652.0	-5812530.0
16	14	43	28	254	64.0	263974.0	-34709.0	-5811932.0
16	14	43	28	255	65.0	248890.0	-33509.0	-5811345.0
16	14	43	28	255	66.0	226609.0	-32732.0	-5811299.0
16	14	43	28	256	67.0	194950.0	-31769.0	-5812311.0
16	14	43	28	257	68.0	149808.0	-30591.0	-5811877.0
16	14	43	28	257	69.0	102513.0	-31088.0	-5811239.0
16	14	43	28	258	70.0	55637.0	-31064.0	-5811058.0
16	14	43	28	259	71.0	16830.0	-30270.0	-5812136.0
16	14	43	28	259	72.0	-33225.0	-29691.0	-5811844.0
16	14	43	28	260	73.0	-76979.0	-28589.0	-5811201.0
16	14	43	28	260	74.0	-111257.0	-27187.0	-5810891.0
16	14	43	28	261	75.0	-133691.0	-25029.0	-5812103.0
16	14	43	28	261	76.0	-140998.0	-24201.0	-5812075.0
16	14	43	28	295	77.0	-144298.0	-24531.0	-5811440.0
16	14	43	28	296	78.0	-137703.0	-23800.0	-5811039.0
16	14	43	28	296	79.0	-130062.0	-22091.0	-5812132.0
16	14	43	28	296	80.0	-124277.0	-21015.0	-5812303.0
16	14	43	28	296	81.0	-124316.0	-19947.0	-5811621.0
16	14	43	28	297	82.0	-109068.0	-18916.0	-5810994.0
16	14	43	28	297	83.0	-70902.0	-18216.0	-5810755.0
16	14	43	28	297	84.0	-21599.0	-17437.0	-5811667.0
16	14	43	28	297	85.0	38974.0	-17606.0	-5811299.0
16	14	43	28	298	86.0	92828.0	-17067.0	-5810756.0
16	14	43	28	298	87.0	131374.0	-16452.0	-5811416.0
16	14	43	28	298	88.0	157619.0	-15071.0	-5812212.0
16	14	43	28	298	89.0	176669.0	-14600.0	-5811593.0
16	14	43	28	299	90.0	189901.0	-14065.0	-5811076.0
16	14	43	28	299	91.0	188124.0	-12883.0	-5811824.0
16	14	43	28	299	92.0	164133.0	-11720.0	-5812324.0
16	14	43	28	351	93.0	117191.0	-11918.0	-5811636.0
16	14	43	28	351	94.0	65095.0	-11662.0	-5810991.0
16	14	43	28	352	95.0	13648.0	-11066.0	-5810796.0
16	14	43	28	352	96.0	-35327.0	-10394.0	-5812095.0
16	14	43	28	352	97.0	-83482.0	-9951.0	-5811797.0
16	14	43	28	352	98.0	-128346.0	-9193.0	-5811197.0
16	14	43	28	353	99.0	-164479.0	-8484.0	-5810677.0
16	14	43	28	353	100.0	-192526.0	-9041.0	-5811841.0
16	14	43	28	353	101.0	-204909.0	-8740.0	-5811973.0
16	14	43	28	353	102.0	-189770.0	-7767.0	-5811374.0
16	14	43	28	354	103.0	-157581.0	-6961.0	-5810668.0
16	14	43	28	354	104.0	-127676.0	-6481.0	-5810939.0
16	14	43	28	354	105.0	-110758.0	-5207.0	-5811777.0
16	14	43	28	355	106.0	-101268.0	-3996.0	-5811313.0
16	14	43	28	355	107.0	-83117.0	-3495.0	-5810638.0
16	14	43	28	355	108.0	-62808.0	-3578.0	-5811066.0
16	14	43	28	356	109.0	-47266.0	-3176.0	-5812202.0
16	14	43	28	356	110.0	-41146.0	-2346.0	-5811792.0
16	14	43	28	356	111.0	-35416.0	-1586.0	-5811089.0
16	14	43	28	356	112.0	-27529.0	-1623.0	-5811136.0
16	14	43	28	357	113.0	-12977.0	-1698.0	-5812459.0
16	14	43	28	357	114.0	748.0	-1054.0	-5812191.0
16	14	43	28	407	115.0	14035.0	-545.0	-5811496.0
16	14	43	28	407	116.0	36329.0	429.0	-5810931.0
16	14	43	28	407	117.0	63031.0	781.0	-5811767.0
16	14	43	28	408	118.0	91624.0	1747.0	-5812479.0
16	14	43	28	408	119.0	109293.0	2324.0	-5811910.0
16	14	43	28	408	120.0	114869.0	2789.0	-5811298.0
16	14	43	28	408	121.0	121288.0	3841.0	-5811566.0
16	14	43	28	409	122.0	121108.0	3983.0	-5812494.0
16	14	43	28	409	123.0	104891.0	3833.0	-5812019.0
16	14	43	28	409	124.0	92218.0	4682.0	-5811371.0
16	14	43	28	409	125.0	89857.0	5098.0	-5811346.0
16	14	43	28	410	126.0	84868.0	5699.0	-5812532.0
16	14	43	28	410	127.0	67684.0	5903.0	-5812212.0
16	14	43	28	410	128.0	43594.0	6499.0	-5811492.0
16	14	43	28	410	129.0	12973.0	7117.0	-5811336.0
16	14	43	28	411	130.0	-24828.0	6808.0	-5812542.0
16	14	43	28	411	131.0	-71632.0	7278.0	-5812437.0
16	14	43	28	411	132.0	-127226.0	7724.0	-5811698.0
16	14	43	28	411	133.0	-185377.0	8009.0	-5811117.0
16	14	43	28	412	134.0	-227311.0	8960.0	-5811027.0
16	14	43	28	412	135.0	-251583.0	9654.0	-5812370.0
16	14	43	28	412	136.0	-249516.0	9674.0	-5812031.0
16	14	43	28	412	137.0	-219471.0	9166.0	-5811464.0
16	14	43	28	413	138.0	-173726.0	8912.0	-5811022.0
16	14	43	28	413	139.0	-133994.0	9026.0	-5811702.0
16	14	43	28	413	140.0	-108930.0	9372.0	-5811442.0
16	14	43	28	413	141.0	-88607.0	10318.0	-5810999.0
16	14	43	28	414	142.0	-79399.0	10362.0	-5811857.0
16	14	43	28	414	143.0	-64177.0	10339.0	-5812137.0
16	14	43	28	414	144.0	-3729.0	10250.0	-5811430.0
16	14	43	28	414	145.0	14888.0	9585.0	-5810868.0
16	14	43	28	415	146.0	6674.0	9736.0	-5811439.0
16	14	43	28	464	147.0	-6065.0	11148.0	-5812474.0
16	14	43	28	464	148.0	-12202.0	12246.0	-5811851.0
16	14	43	28	464	149.0	-11363.0	12068.0	-5811239.0
16	14	43	28	465	150.0	-11069.0	12030.0	-5810791.0
16	14	43	28	465	151.0	1111.0	12961.0	-5811966.0
16	14	43	28	465	152.0	20991.0	12253.0	-5811982.0
16	14	43	28	465	153.0	38403.0	12308.0	-5811407.0
16	14	43	28	466	154.0	53974.0	12569.0	-5810889.0
16	14	43	28	466	155.0	72794.0	13893.0	-5811554.0
16	14	43	28	466	156.0	97172.0	14261.0	-5811586.0
16	14	43	28	466	157.0	118097.0	14175.0	-5810997.0
16	14	43	28	467	158.0	144720.0	14141.0	-5810971.0
16	14	43	28	467	159.0	173288.0	13929.0	-5812100.0
16	14	43	28	467	160.0	202208.0	13349.0	-5811660.0
16	14	43	28	467	161.0	217174.0	13334.0	-5811056.0
16	14	43	28	467	162.0	208286.0	13864.0	-5810727.0
16	14	43	28	468	163.0	180954.0	13966.0	-5811874.0
16	14	43	28	468	164.0	151227.0	13865.0	-5811666.0
16	14	43	28	468	165.0	140754.0	13802.0	-5811071.0
16	14	43	28	468	166.0	124515.0	14179.0	-5810444.0
16	14	43	28	469	167.0	81356.0	15089.0	-5810719.0
16	14	43	28	469	168.0	23791.0	15203.0	-5811122.0
16	14	43	28	469	169.0	-25772.0	15114.0	-5810554.0
16	14	43	28	469	170.0	-54634.0	15196.0	-5810312.0
16	14	43	28	470	171.0	-74001.0	15952.0	-5811562.0
16	14	43	28	470	172.0	-84311.0	16739.0	-5811374.0
16	14	43	28	470	173.0	-72500.0	17110.0	-5810779.0
16	14	43	28	470	174.0	-50801.0	16537.0	-5810192.0
16	14	43	28	471	175.0	-26506.0	16088.0	-5810827.0
16	14	43	28	471	176.0	4179.0	16530.0	-5811146.0
16	14	43	28	471	177.0	41366.0	16534.0	-5810584.0
16	14	43	28	471	178.0	79798.0	16466.0	-5810639.0
16	14	43	28	517	179.0	92995.0	16540.0	-5811909.0
16	14	43	28	517	180.0	86000.0	16927.0	-5811519.0
16	14	43	28	518	181.0	60465.0	18249.0	-5810894.0
16	14	43	28	518	182.0	22168.0	18149.0	-5810287.0
16	14	43	28	518	183.0	-26035.0	18167.0	-5810589.0
16	14	43	28	518	184.0	-81564.0	17962.0	-5810991.0
16	14	43	28	519	185.0	-138761.0	18371.0	-5810440.0
16	14	43	28	519	186.0	-185209.0	18142.0	-5810105.0
16	14	43	28	519	187.0	-202994.0	17948.0	-5811325.0
16	14	43	28	519	188.0	-196539.0	17870.0	-5811227.0
16	14	43	28	520	189.0	-179257.0	17871.0	-5810604.0
16	14	43	28	520	190.0	-154146.0	16635.0	-5810239.0
16	14	43	28	520	191.0	-120068.0	16009.0	-5811521.0
16	14	43	28	520	192.0	-75934.0	16601.0	-5811612.0
16	14	43	28	521	193.0	-25769.0	17658.0	-5810963.0
16	14	43	28	521	194.0	24951.0	18171.0	-5810328.0
16	14	43	28	521	195.0	79769.0	17838.0	-5810474.0
16	14	43	28	521	196.0	141381.0	17369.0	-5811142.0
16	14	43	28	522	197.0	199795.0	16585.0	-5810620.0
16	14	43	28	522	198.0	245808.0	16444.0	-5809983.0
16	14	43	28	522	199.0	283303.0	17544.0	-5810330.0
16	14	43	28	522	200.0	322539.0	18664.0	-5810787.0
16	14	43	28	523	201.0	354436.0	19264.0	-5810252.0
16	14	43	28	523	202.0	315406.0	19350.0	-5810320.0
16	14	43	28	523	203.0	147407.0	19621.0	-5811300.0
16	14	43	28	523	204.0	-121858.0	19176.0	-5810763.0
16	14	43	28	568	205.0	-383964.0	18826.0	-5810124.0
16	14	43	28	568	206.0	-561910.0	19340.0	-5810226.0
16	14	43	28	568	207.0	-652314.0	19844.0	-5811268.0
16	14	43	28	569	208.0	-634403.0	19877.0	-5810827.0
16	14	43	28	569	209.0	-541581.0	19526.0	-5810216.0
16	14	43	28	569	210.0	-434126.0	19376.0	-5809823.0
16	14	43	28	569	211.0	-297311.0	20057.0	-5811056.0
16	14	43	28	570	212.0	-112229.0	19933.0	-5811311.0
16	14	43	28	570	213.0	80716.0	19556.0	-5810635.0
16	14	43	28	570	214.0	256058.0	20168.0	-5810006.0
16	14	43	28	570	215.0	365617.0	21684.0	-5810056.0
16	14	43	28	571	216.0	390898.0	22330.0	-5811296.0
16	14	43	28	571	217.0	384078.0	22054.0	-5810893.0
16	14	43	28	571	218.0	360951.0	21802.0	-5810306.0
16	14	43	28	571	219.0	313208.0	21566.0	-5810352.0
16	14	43	28	572	220.0	244209.0	20999.0	-5811568.0
16	14	43	28	572	221.0	205216.0	21783.0	-5811191.0
16	14	43	28	572	222.0	233874.0	23025.0	-5810587.0
16	14	43	28	572	223.0	292741.0	23054.0	-5809950.0
16	14	43	28	573	224.0	308979.0	22921.0	-5810776.0
16	14	43	28	573	225.0	216015.0	22601.0	-5811355.0
16	14	43	28	573	226.0	79459.0	22504.0	-5810794.0
16	14	43	28	573	227.0	-5859.0	21783.0	-5810048.0
16	14	43	28	574	228.0	-4144.0	21758.0	-5810392.0
16	14	43	28	574	229.0	64984.0	22196.0	-5811373.0
16	14	43	28	574	230.0	143388.0	22609.0	-5810971.0
16	14	43	28	621	231.0	209271.0	22394.0	-5810272.0
16	14	43	28	621	232.0	240054.0	22596.0	-5810094.0
16	14	43	28	621	233.0	218663.0	22478.0	-5811179.0
16	14	43	28	622	234.0	154838.0	22340.0	-5811032.0
16	14	43	28	622	235.0	75513.0	22298.0	-5810293.0
16	14	43	28	622	236.0	-10186.0	22861.0	-5809971.0
16	14	43	28	623	237.0	-87271.0	24161.0	-5811207.0
16	14	43	28	623	238.0	-152931.0	24798.0	-5811386.0
16	14	43	28	623	239.0	-199809.0	24289.0	-5810679.0
16	14	43	28	623	240.0	-227358.0	24203.0	-5810174.0
16	14	43	28	623	241.0	-238684.0	24461.0	-5810951.0
16	14	43	28	624	242.0	-237775.0	24010.0	-5811320.0
16	14	43	28	624	243.0	-218059.0	23834.0	-5810619.0
16	14	43	28	624	244.0	-177461.0	24417.0	-5809990.0
16	14	43	28	624	245.0	-152236.0	25723.0	-5810197.0
16	14	43	28	625	246.0	-148646.0	25558.0	-5811363.0
16	14	43	28	625	247.0	-146576.0	25297.0	-5810944.0
16	14	43	28	625	248.0	-141292.0	24941.0	-5810291.0
16	14	43	28	625	249.0	-143484.0	25159.0	-5810036.0
16	14	43	28	625	250.0	-148074.0	24676.0	-5811304.0
16	14	43	28	626	251.0	-156359.0	24737.0	-5811334.0
16	14	43	28	626	252.0	-158949.0	26238.0	-5810674.0
16	14	43	28	626	253.0	-144869.0	26191.0	-5810296.0
16	14	43	28	626	254.0	-113332.0	26041.0	-5811253.0
16	14	43	28	626	255.0	-52423.0	26199.0	-5811299.0
16	14	43	28	627	0.0	24814.0	26481.0	-5810610.0
16	14	43	28	627	1.0	105548.0	26562.0	-5810126.0
16	14	43	28	683	2.0	183661.0	25981.0	-5810939.0
16	14	43	28	683	3.0	270890.0	25713.0	-5811518.0
16	14	43	28	683	4.0	361279.0	26469.0	-5810837.0
16	14	43	28	684	5.0	439789.0	26675.0	-5810266.0
16	14	43	28	684	6.0	499259.0	26761.0	-5810175.0
16	14	43	28	684	7.0	527551.0	26274.0	-5811407.0
16	14	43	28	684	8.0	520194.0	26033.0	-5811032.0
16	14	43	28	685	9.0	483264.0	25331.0	-5810429.0
16	14	43	28	685	10.0	419979.0	25214.0	-5810091.0
16	14	43	28	685	11.0	329828.0	25738.0	-5811418.0
16	14	43	28	685	12.0	237406.0	25399.0	-5811316.0
16	14	43	28	686	13.0	158165.0	24981.0	-5810683.0
16	14	43	28	686	14.0	83615.0	24917.0	-5810101.0
16	14	43	28	686	15.0	7970.0	24876.0	-5810793.0
16	14	43	28	686	16.0	-54539.0	24476.0	-5810849.0
16	14	43	28	686	17.0	-104781.0	24426.0	-5810267.0
16	14	43	28	687	18.0	-129814.0	24714.0	-5810390.0
16	14	43	28	687	19.0	-147711.0	25457.0	-5811524.0
16	14	43	28	687	20.0	-153864.0	25222.0	-5811031.0
16	14	43	28	687	21.0	-149818.0	25159.0	-5810406.0
16	14	43	28	688	22.0	-129085.0	25641.0	-5809824.0
16	14	43	28	688	23.0	-116014.0	25668.0	-5810374.0
16	14	43	28	688	24.0	-110827.0	25626.0	-5810477.0
16	14	43	28	688	25.0	-112409.0	27161.0	-5809943.0
16	14	43	28	689	26.0	-126562.0	29354.0	-5810572.0
16	14	43	28	689	27.0	-148689.0	30189.0	-5811427.0
16	14	43	28	689	28.0	-177024.0	30940.0	-5810823.0
16	14	43	28	689	29.0	-211225.0	31855.0	-5810237.0
16	14	43	28	690	30.0	-231062.0	33385.0	-5810177.0
16	14	43	28	690	31.0	-245179.0	34329.0	-5811517.0
16	14	43	28	745	32.0	-268942.0	35961.0	-5811193.0
16	14	43	28	745	33.0	-266241.0	38684.0	-5810562.0
16	14	43	28	746	34.0	-214492.0	42226.0	-5810036.0
16	14	43	28	746	35.0	-278146.0	45457.0	-5810961.0
16	14	43	28	746	36.0	-317091.0	48139.0	-5811195.0
16	14	43	28	746	37.0	-245557.0	51286.0	-5810569.0
16	14	43	28	747	38.0	-169243.0	55855.0	-5809958.0
16	14	43	28	747	39.0	-130266.0	59469.0	-5810156.0
16	14	43	28	747	40.0	-120277.0	64383.0	-5810873.0
16	14	43	28	747	41.0	-110696.0	70279.0	-5810380.0
16	14	43	28	748	42.0	-102926.0	75378.0	-5810071.0
16	14	43	28	748	43.0	-85639.0	80691.0	-5811180.0
16	14	43	28	749	44.0	-76436.0	86278.0	-5811054.0
16	14	43	28	749	45.0	-68731.0	92606.0	-5810408.0
16	14	43	28	749	46.0	-44644.0	98130.0	-5809944.0
16	14	43	28	749	47.0	-1391.0	104459.0	-5810898.0
16	14	43	28	750	48.0	44103.0	111872.0	-5811001.0
16	14	43	28	750	49.0	85796.0	119839.0	-5810356.0
16	14	43	28	750	50.0	128929.0	127174.0	-5809711.0
16	14	43	28	750	51.0	178809.0	133789.0	-5809744.0
16	14	43	28	751	52.0	227373.0	140630.0	-5811082.0
16	14	43	28	751	53.0	256129.0	147693.0	-5810681.0
16	14	43	28	751	54.0	249242.0	154313.0	-5810083.0
16	14	43	28	751	55.0	226282.0	162139.0	-5809777.0
16	14	43	28	752	56.0	200333.0	170563.0	-5810681.0
16	14	43	28	752	57.0	178282.0	177786.0	-5810354.0
16	14	43	28	752	58.0	150618.0	184913.0	-5809751.0
16	14	43	28	752	59.0	108944.0	191834.0	-5809805.0
16	14	43	28	807	60.0	64623.0	198669.0	-5810507.0
16	14	43	28	808	61.0	29727.0	204342.0	-5809994.0
16	14	43	28	808	62.0	958.0	210071.0	-5809624.0
