16	14	44	34	22	129.0	-327316.0	265082.0	-5804579.0
16	14	44	34	25	130.0	-311893.0	270532.0	-5803873.0
16	14	44	34	26	131.0	-285922.0	275103.0	-5803469.0
16	14	44	34	28	132.0	-252811.0	279325.0	-5804592.0
16	14	44	34	60	133.0	-222882.0	283280.0	-5804787.0
16	14	44	34	61	134.0	-181214.0	285554.0	-5804090.0
16	14	44	34	62	135.0	-138077.0	288285.0	-5803629.0
16	14	44	34	63	136.0	-84841.0	290562.0	-5804817.0
16	14	44	34	63	137.0	-36355.0	291035.0	-5805173.0
16	14	44	34	64	138.0	6774.0	290396.0	-5804536.0
16	14	44	34	65	139.0	55756.0	289603.0	-5803938.0
16	14	44	34	65	140.0	89368.0	287389.0	-5804542.0
16	14	44	34	66	141.0	131039.0	284848.0	-5805707.0
16	14	44	34	67	142.0	169871.0	283221.0	-5805211.0
16	14	44	34	67	143.0	197708.0	280330.0	-5804546.0
16	14	44	34	68	144.0	217748.0	276044.0	-5804422.0
16	14	44	34	69	145.0	215920.0	271146.0	-5805615.0
16	14	44	34	69	146.0	206919.0	266103.0	-5805419.0
16	14	44	34	70	147.0	176969.0	260736.0	-5804694.0
16	14	44	34	109	148.0	146053.0	254228.0	-5804149.0
16	14	44	34	139	149.0	107251.0	246522.0	-5804778.0
16	14	44	34	140	150.0	61877.0	239963.0	-5805594.0
16	14	44	34	140	151.0	33023.0	232949.0	-5804959.0
16	14	44	34	140	152.0	13081.0	225028.0	-5804391.0
16	14	44	34	141	153.0	9334.0	216533.0	-5804216.0
16	14	44	34	141	154.0	20694.0	207591.0	-5805528.0
16	14	44	34	141	155.0	32388.0	198440.0	-5805260.0
16	14	44	34	142	156.0	54275.0	189279.0	-5804676.0
16	14	44	34	142	157.0	81565.0	181126.0	-5804608.0
16	14	44	34	142	158.0	113266.0	172319.0	-5805938.0
16	14	44	34	143	159.0	154689.0	163681.0	-5805564.0
16	14	44	34	143	160.0	193309.0	154834.0	-5804977.0
16	14	44	34	143	161.0	226428.0	145411.0	-5804437.0
16	14	44	34	144	162.0	245231.0	135586.0	-5805177.0
16	14	44	34	144	163.0	255842.0	125296.0	-5805126.0
16	14	44	34	144	185.0	-408479.0	-37013.0	-5804662.0
16	14	44	34	145	186.0	-335864.0	-41547.0	-5805817.0
16	14	44	34	145	187.0	-184676.0	-45720.0	-5805492.0
16	14	44	34	146	188.0	4739.0	-49104.0	-5804984.0
16	14	44	34	146	189.0	183499.0	-52287.0	-5804684.0
16	14	44	34	146	190.0	313619.0	-55508.0	-5805997.0
16	14	44	34	168	191.0	372149.0	-58066.0	-5805904.0
16	14	44	34	168	192.0	360939.0	-60415.0	-5805289.0
16	14	44	34	169	193.0	290956.0	-61789.0	-5804673.0
16	14	44	34	169	194.0	197063.0	-63463.0	-5805252.0
16	14	44	34	170	195.0	112364.0	-66406.0	-5805534.0
16	14	44	34	170	196.0	61461.0	-69774.0	-5804942.0
16	14	44	34	171	197.0	47615.0	-72117.0	-5804681.0
16	14	44	34	171	198.0	72599.0	-74051.0	-5805871.0
16	14	44	34	171	199.0	128875.0	-75753.0	-5805667.0
16	14	44	34	172	200.0	194926.0	-77215.0	-5805024.0
16	14	44	34	172	201.0	242325.0	-79021.0	-5804431.0
16	14	44	34	173	202.0	261534.0	-80287.0	-5804894.0
16	14	44	34	182	203.0	251401.0	-82012.0	-5805276.0
16	14	44	34	213	204.0	219733.0	-83663.0	-5804724.0
16	14	44	34	213	205.0	168660.0	-85066.0	-5804751.0
16	14	44	34	214	207.0	45186.0	-88076.0	-5805519.0
16	14	44	34	214	208.0	-6694.0	-90219.0	-5804904.0
16	14	44	34	231	209.0	-37871.0	-92430.0	-5804464.0
16	14	44	34	232	210.0	-43786.0	-93482.0	-5805611.0
16	14	44	34	232	211.0	-18581.0	-94558.0	-5805721.0
16	14	44	34	232	212.0	20474.0	-95210.0	-5805066.0
16	14	44	34	233	213.0	59551.0	-96874.0	-5804436.0
16	14	44	34	233	214.0	92112.0	-99025.0	-5804906.0
16	14	44	34	233	215.0	104099.0	-101393.0	-5805644.0
16	14	44	34	233	216.0	96163.0	-103396.0	-5805082.0
16	14	44	34	234	217.0	65891.0	-105887.0	-5804453.0
16	14	44	34	234	218.0	23968.0	-108764.0	-5804497.0
16	14	44	34	234	219.0	-31717.0	-110769.0	-5805208.0
16	14	44	34	235	230.0	-44111.0	-132448.0	-5805369.0
16	14	44	34	235	231.0	-6881.0	-133872.0	-5805361.0
16	14	44	34	235	232.0	17221.0	-135019.0	-5804692.0
16	14	44	34	236	233.0	30674.0	-136041.0	-5804212.0
16	14	44	34	236	234.0	43193.0	-136938.0	-5805156.0
16	14	44	34	237	235.0	48506.0	-137933.0	-5805616.0
16	14	44	34	258	236.0	51406.0	-138569.0	-5804999.0
16	14	44	34	258	237.0	48501.0	-138743.0	-5804383.0
16	14	44	34	259	238.0	41406.0	-139018.0	-5804385.0
16	14	44	34	259	239.0	35588.0	-139206.0	-5804996.0
16	14	44	34	279	240.0	24351.0	-139190.0	-5804483.0
16	14	44	34	279	241.0	15311.0	-139628.0	-5804064.0
16	14	44	34	279	242.0	9676.0	-140053.0	-5805134.0
16	14	44	34	280	243.0	19580.0	-139882.0	-5805244.0
16	14	44	34	280	244.0	39599.0	-139308.0	-5804541.0
16	14	44	34	280	245.0	59024.0	-139204.0	-5803921.0
16	14	44	34	280	246.0	74387.0	-139151.0	-5804189.0
16	14	44	34	281	247.0	84775.0	-137924.0	-5805337.0
16	14	44	34	281	248.0	92333.0	-136681.0	-5804780.0
16	14	44	34	281	249.0	98845.0	-135987.0	-5804190.0
16	14	44	34	281	250.0	104630.0	-135058.0	-5803952.0
16	14	44	34	282	252.0	135454.0	-132434.0	-5805328.0
16	14	44	34	282	253.0	168099.0	-130646.0	-5804745.0
16	14	44	34	282	254.0	203336.0	-129404.0	-5804474.0
16	14	44	34	282	255.0	234449.0	-127581.0	-5805817.0
16	14	44	34	282	0.0	261537.0	-125729.0	-5805620.0
16	14	44	34	283	1.0	279512.0	-123525.0	-5805044.0
16	14	44	34	301	2.0	283596.0	-121322.0	-5804344.0
16	14	44	34	302	3.0	270846.0	-118968.0	-5804842.0
16	14	44	34	314	4.0	247168.0	-115901.0	-5805850.0
16	14	44	34	314	5.0	209057.0	-112961.0	-5805366.0
16	14	44	34	315	6.0	161144.0	-110286.0	-5804672.0
16	14	44	34	315	7.0	101651.0	-108604.0	-5804452.0
16	14	44	34	315	8.0	31254.0	-106722.0	-5805578.0
16	14	44	34	316	9.0	-49997.0	-104767.0	-5805441.0
16	14	44	34	316	10.0	-126342.0	-102929.0	-5804762.0
16	14	44	34	316	11.0	-201085.0	-100839.0	-5804788.0
16	14	44	34	316	12.0	-255107.0	-98992.0	-5805982.0
16	14	44	34	317	13.0	-283367.0	-96581.0	-5805711.0
16	14	44	34	317	14.0	-301211.0	-93864.0	-5805016.0
16	14	44	34	317	15.0	-308888.0	-90886.0	-5804443.0
16	14	44	34	317	16.0	-306369.0	-88299.0	-5805169.0
16	14	44	34	318	18.0	-283431.0	-83566.0	-5805176.0
16	14	44	34	318	19.0	-268102.0	-81981.0	-5804474.0
16	14	44	34	318	20.0	-241724.0	-80736.0	-5804831.0
16	14	44	34	318	21.0	-206618.0	-78986.0	-5805959.0
16	14	44	34	319	22.0	-163147.0	-76681.0	-5805540.0
16	14	44	34	319	23.0	-116655.0	-74235.0	-5804870.0
16	14	44	34	319	24.0	-79444.0	-72369.0	-5804825.0
16	14	44	34	347	25.0	-49294.0	-70536.0	-5806072.0
16	14	44	34	347	26.0	-27740.0	-68666.0	-5805872.0
16	14	44	34	347	27.0	-11189.0	-66442.0	-5805186.0
16	14	44	34	363	28.0	14601.0	-64500.0	-5805149.0
16	14	44	34	363	29.0	43931.0	-63274.0	-5806444.0
16	14	44	34	364	30.0	79328.0	-61577.0	-5806284.0
16	14	44	34	364	31.0	111789.0	-59763.0	-5805551.0
16	14	44	34	364	32.0	139814.0	-58894.0	-5805034.0
16	14	44	34	365	33.0	162345.0	-58313.0	-5805754.0
16	14	44	34	365	34.0	176649.0	-57326.0	-5806465.0
16	14	44	34	365	35.0	184943.0	-56824.0	-5805741.0
16	14	44	34	366	36.0	176962.0	-56204.0	-5805144.0
16	14	44	34	366	37.0	159088.0	-56021.0	-5805209.0
16	14	44	34	366	38.0	135837.0	-55131.0	-5806553.0
16	14	44	34	367	39.0	116607.0	-54588.0	-5806162.0
16	14	44	34	367	41.0	73899.0	-53159.0	-5805379.0
16	14	44	34	367	42.0	48358.0	-54162.0	-5806666.0
16	14	44	34	368	43.0	14677.0	-54611.0	-5806389.0
16	14	44	34	368	44.0	-23497.0	-53715.0	-5805774.0
16	14	44	34	368	45.0	-55541.0	-53222.0	-5805159.0
16	14	44	34	369	46.0	-81752.0	-52516.0	-5805739.0
16	14	44	34	392	47.0	-103424.0	-52132.0	-5805886.0
16	14	44	34	393	48.0	-118179.0	-51644.0	-5805314.0
16	14	44	34	413	49.0	-128417.0	-50653.0	-5805379.0
16	14	44	34	414	50.0	-128927.0	-50512.0	-5806719.0
16	14	44	34	414	51.0	-121685.0	-51184.0	-5806282.0
16	14	44	34	415	52.0	-110049.0	-51884.0	-5805689.0
16	14	44	34	415	53.0	-108919.0	-51787.0	-5805070.0
16	14	44	34	415	54.0	-110463.0	-51824.0	-5805788.0
16	14	44	34	416	55.0	-115180.0	-52361.0	-5806594.0
16	14	44	34	416	56.0	-121335.0	-53311.0	-5806021.0
16	14	44	34	416	57.0	-123361.0	-53630.0	-5805363.0
16	14	44	34	417	58.0	-126262.0	-53982.0	-5805344.0
16	14	44	34	417	59.0	-134373.0	-54616.0	-5806665.0
16	14	44	34	417	60.0	-147115.0	-54789.0	-5806369.0
16	14	44	34	417	61.0	-151515.0	-55046.0	-5805717.0
16	14	44	34	418	63.0	-124369.0	-55044.0	-5806961.0
16	14	44	34	418	64.0	-89407.0	-55039.0	-5806871.0
16	14	44	34	418	65.0	-45244.0	-55762.0	-5806247.0
16	14	44	34	419	66.0	7581.0	-56006.0	-5805569.0
16	14	44	34	419	67.0	65098.0	-55226.0	-5806052.0
16	14	44	34	419	68.0	122501.0	-54581.0	-5806729.0
16	14	44	34	420	69.0	180393.0	-54000.0	-5806223.0
16	14	44	34	437	70.0	230865.0	-53947.0	-5805491.0
16	14	44	34	437	71.0	269129.0	-53742.0	-5805866.0
16	14	44	34	454	72.0	289442.0	-53061.0	-5806922.0
16	14	44	34	454	73.0	296487.0	-52207.0	-5806518.0
16	14	44	34	454	74.0	296031.0	-52317.0	-5805808.0
16	14	44	34	455	75.0	293190.0	-53118.0	-5805922.0
16	14	44	34	455	76.0	292174.0	-53134.0	-5807324.0
16	14	44	34	455	77.0	280556.0	-52679.0	-5807111.0
16	14	44	34	455	78.0	250064.0	-52919.0	-5806383.0
16	14	44	34	456	79.0	204059.0	-52589.0	-5806089.0
16	14	44	34	456	80.0	151070.0	-52289.0	-5807064.0
16	14	44	34	456	81.0	96234.0	-52507.0	-5807044.0
16	14	44	34	456	82.0	45421.0	-52546.0	-5806306.0
16	14	44	34	457	83.0	3814.0	-52095.0	-5805781.0
16	14	44	34	457	84.0	-32708.0	-51692.0	-5806834.0
16	14	44	34	457	86.0	-91771.0	-50547.0	-5806670.0
16	14	44	34	457	87.0	-118829.0	-50169.0	-5806034.0
16	14	44	34	458	88.0	-136324.0	-49195.0	-5806364.0
16	14	44	34	458	89.0	-144809.0	-48590.0	-5807453.0
16	14	44	34	458	90.0	-140799.0	-47732.0	-5806961.0
16	14	44	34	458	91.0	-129927.0	-46439.0	-5806348.0
16	14	44	34	482	92.0	-110636.0	-45299.0	-5806617.0
16	14	44	34	529	93.0	-92696.0	-44356.0	-5807628.0
16	14	44	34	530	94.0	-70966.0	-42321.0	-5807111.0
16	14	44	34	550	95.0	-41093.0	-41172.0	-5806454.0
16	14	44	34	550	96.0	-9089.0	-40249.0	-5806449.0
16	14	44	34	551	97.0	18213.0	-39927.0	-5807714.0
16	14	44	34	551	98.0	40293.0	-38987.0	-5807420.0
16	14	44	34	552	99.0	54763.0	-37473.0	-5806683.0
16	14	44	34	552	100.0	60089.0	-36771.0	-5806193.0
16	14	44	34	553	101.0	67794.0	-36106.0	-5807207.0
16	14	44	34	553	102.0	80976.0	-34296.0	-5807707.0
16	14	44	34	553	103.0	91476.0	-32947.0	-5807014.0
16	14	44	34	554	104.0	95902.0	-31812.0	-5806422.0
16	14	44	34	554	105.0	80986.0	-30778.0	-5806874.0
16	14	44	34	555	106.0	52391.0	-29524.0	-5807999.0
16	14	44	34	555	108.0	-8487.0	-26346.0	-5806844.0
16	14	44	34	556	131.0	96861.0	399.0	-5807323.0
16	14	44	34	556	132.0	82619.0	1216.0	-5807491.0
16	14	44	34	557	133.0	58466.0	2083.0	-5806851.0
16	14	44	34	557	134.0	37274.0	3474.0	-5806188.0
16	14	44	34	558	135.0	37728.0	4826.0	-5806893.0
16	14	44	34	558	136.0	49682.0	6289.0	-5807626.0
16	14	44	34	583	137.0	62769.0	7862.0	-5807087.0
16	14	44	34	584	138.0	66567.0	9329.0	-5806429.0
16	14	44	34	584	139.0	66333.0	10893.0	-5807029.0
16	14	44	34	585	140.0	50327.0	11608.0	-5807641.0
16	14	44	34	585	141.0	39640.0	12006.0	-5807094.0
16	14	44	34	585	142.0	34556.0	13296.0	-5806397.0
16	14	44	34	586	143.0	19919.0	14713.0	-5806497.0
16	14	44	34	586	144.0	-12301.0	15230.0	-5807554.0
16	14	44	34	586	145.0	-52761.0	15230.0	-5807222.0
16	14	44	34	587	146.0	-99166.0	15562.0	-5806516.0
16	14	44	34	587	147.0	-141784.0	15711.0	-5806089.0
16	14	44	34	587	148.0	-189414.0	16379.0	-5806987.0
16	14	44	34	588	149.0	-231147.0	17531.0	-5807165.0
16	14	44	34	588	150.0	-260822.0	18399.0	-5806454.0
16	14	44	34	588	151.0	-255133.0	19739.0	-5805949.0
16	14	44	34	588	153.0	-136367.0	21378.0	-5807187.0
16	14	44	34	589	154.0	-45278.0	22261.0	-5806502.0
16	14	44	34	606	155.0	53047.0	22321.0	-5806069.0
16	14	44	34	606	156.0	131954.0	22869.0	-5807137.0
16	14	44	34	607	157.0	201515.0	23331.0	-5807512.0
16	14	44	34	624	158.0	273259.0	24455.0	-5806806.0
16	14	44	34	625	159.0	331466.0	25566.0	-5806239.0
16	14	44	34	625	160.0	370386.0	26106.0	-5806570.0
16	14	44	34	625	161.0	385801.0	27504.0	-5807781.0
16	14	44	34	625	162.0	395176.0	28046.0	-5807256.0
16	14	44	34	625	163.0	386967.0	28261.0	-5806597.0
16	14	44	34	626	164.0	352051.0	28447.0	-5806053.0
16	14	44	34	626	165.0	295354.0	28607.0	-5807141.0
16	14	44	34	626	166.0	225539.0	28175.0	-5807621.0
16	14	44	34	626	167.0	157781.0	28037.0	-5807005.0
16	14	44	34	627	168.0	96656.0	28825.0	-5806374.0
16	14	44	34	627	169.0	49290.0	28994.0	-5806774.0
16	14	44	34	627	170.0	17606.0	29576.0	-5807286.0
16	14	44	34	642	171.0	7104.0	29975.0	-5806757.0
16	14	44	34	642	172.0	4031.0	29676.0	-5806152.0
16	14	44	34	642	176.0	-59539.0	29831.0	-5806159.0
16	14	44	34	643	177.0	-78363.0	28874.0	-5807497.0
16	14	44	34	643	178.0	-91759.0	28933.0	-5807212.0
16	14	44	34	643	179.0	-107684.0	29284.0	-5806562.0
16	14	44	34	643	180.0	-118725.0	29537.0	-5805919.0
16	14	44	34	644	181.0	-130658.0	29937.0	-5806225.0
16	14	44	34	663	182.0	-146202.0	30546.0	-5806463.0
16	14	44	34	663	183.0	-166650.0	30849.0	-5805900.0
16	14	44	34	681	184.0	-228133.0	31456.0	-5805675.0
16	14	44	34	681	185.0	-385985.0	32550.0	-5806738.0
16	14	44	34	682	186.0	-589721.0	31803.0	-5806465.0
16	14	44	34	682	187.0	-717374.0	31399.0	-5805873.0
16	14	44	34	682	188.0	-739203.0	31828.0	-5805859.0
16	14	44	34	682	189.0	-662988.0	31943.0	-5806952.0
16	14	44	34	683	190.0	-511458.0	31919.0	-5806531.0
16	14	44	34	683	191.0	-346791.0	31565.0	-5805926.0
16	14	44	34	683	192.0	-232887.0	31548.0	-5805331.0
16	14	44	34	683	193.0	-149753.0	31993.0	-5805689.0
16	14	44	34	684	194.0	-66786.0	32344.0	-5806125.0
16	14	44	34	684	195.0	10743.0	33078.0	-5805512.0
16	14	44	34	684	196.0	40231.0	32938.0	-5805116.0
16	14	44	34	684	198.0	-84085.0	32704.0	-5806296.0
16	14	44	34	685	199.0	-154334.0	32369.0	-5805616.0
16	14	44	34	685	200.0	-181667.0	31526.0	-5805199.0
16	14	44	34	685	201.0	-196234.0	32120.0	-5806493.0
16	14	44	34	685	202.0	-192941.0	32489.0	-5806791.0
16	14	44	34	686	203.0	-160904.0	32798.0	-5806141.0
16	14	44	34	686	204.0	-69194.0	33016.0	-5805502.0
16	14	44	34	707	205.0	65337.0	32530.0	-5805606.0
16	14	44	34	708	206.0	165418.0	33076.0	-5806133.0
16	14	44	34	708	207.0	173671.0	33581.0	-5805606.0
16	14	44	34	708	208.0	116541.0	33017.0	-5805561.0
16	14	44	34	717	209.0	55131.0	32602.0	-5806806.0
16	14	44	34	718	210.0	23651.0	32016.0	-5806526.0
16	14	44	34	718	211.0	23149.0	31901.0	-5805811.0
16	14	44	34	718	212.0	40215.0	32680.0	-5805292.0
16	14	44	34	718	213.0	69326.0	32673.0	-5806148.0
16	14	44	34	719	214.0	105109.0	32510.0	-5806741.0
16	14	44	34	719	215.0	123196.0	32438.0	-5806034.0
16	14	44	34	719	216.0	123554.0	31834.0	-5805438.0
16	14	44	34	720	217.0	103154.0	31664.0	-5805167.0
16	14	44	34	720	218.0	70516.0	31371.0	-5806166.0
16	14	44	34	720	219.0	24398.0	31091.0	-5805889.0
16	14	44	34	735	221.0	-88029.0	32521.0	-5806879.0
16	14	44	34	735	222.0	-120576.0	31155.0	-5806747.0
16	14	44	34	735	223.0	-125007.0	30660.0	-5806034.0
16	14	44	34	736	224.0	-111249.0	30266.0	-5805594.0
16	14	44	34	736	225.0	-79022.0	30661.0	-5806590.0
16	14	44	34	736	226.0	-31576.0	30779.0	-5807095.0
16	14	44	34	752	227.0	21788.0	30859.0	-5806381.0
16	14	44	34	770	228.0	60118.0	31124.0	-5805791.0
16	14	44	34	770	229.0	88978.0	31458.0	-5805812.0
16	14	44	34	771	230.0	98373.0	31060.0	-5807043.0
16	14	44	34	771	231.0	82123.0	30293.0	-5806596.0
16	14	44	34	771	232.0	49443.0	29929.0	-5805996.0
16	14	44	34	771	233.0	15294.0	29325.0	-5805438.0
16	14	44	34	772	234.0	2186.0	29147.0	-5806154.0
16	14	44	34	772	235.0	5230.0	29131.0	-5806141.0
16	14	44	34	772	236.0	26492.0	28956.0	-5805581.0
16	14	44	34	773	237.0	64303.0	29568.0	-5805731.0
16	14	44	34	773	238.0	100974.0	29188.0	-5806921.0
16	14	44	34	773	239.0	131540.0	28318.0	-5806426.0
16	14	44	34	773	240.0	167146.0	27998.0	-5805819.0
16	14	44	34	774	241.0	215748.0	27785.0	-5805361.0
16	14	44	34	774	243.0	354199.0	27798.0	-5805894.0
16	14	44	34	774	244.0	436509.0	27284.0	-5805263.0
16	14	44	34	775	245.0	520047.0	26635.0	-5805029.0
16	14	44	34	775	246.0	595164.0	26349.0	-5806237.0
16	14	44	34	775	247.0	628540.0	26138.0	-5805951.0
16	14	44	34	775	248.0	616860.0	25888.0	-5805379.0
16	14	44	34	776	249.0	579811.0	25924.0	-5804828.0
16	14	44	34	844	250.0	521719.0	26248.0	-5805649.0
16	14	44	34	845	251.0	447048.0	26721.0	-5805673.0
16	14	44	34	869	252.0	385301.0	27633.0	-5805206.0
16	14	44	34	869	253.0	343694.0	27648.0	-5806209.0
16	14	44	34	870	254.0	311443.0	26985.0	-5806751.0
16	14	44	34	870	255.0	287611.0	26538.0	-5806056.0
16	14	44	34	871	0.0	231303.0	26111.0	-5805471.0
16	14	44	34	871	1.0	140293.0	26294.0	-5805677.0
16	14	44	34	872	2.0	67642.0	26158.0	-5806719.0
16	14	44	34	872	3.0	-26031.0	26033.0	-5806106.0
16	14	44	34	873	4.0	-112199.0	26656.0	-5805491.0
16	14	44	34	873	5.0	-198073.0	27375.0	-5804878.0
16	14	44	34	874	6.0	-254047.0	27597.0	-5805445.0
16	14	44	34	875	7.0	-312934.0	28330.0	-5805547.0
16	14	44	34	875	8.0	-352400.0	29383.0	-5804957.0
16	14	44	34	876	32.0	-51866.0	186729.0	-5804876.0
16	14	44	34	876	33.0	-54672.0	197146.0	-5804788.0
16	14	44	34	877	34.0	-58282.0	206878.0	-5806020.0
16	14	44	34	877	35.0	-75045.0	216740.0	-5805609.0
16	14	44	34	878	36.0	-94457.0	226456.0	-5804921.0
16	14	44	34	878	37.0	-125828.0	236324.0	-5804262.0
16	14	44	34	904	38.0	-145327.0	245694.0	-5804637.0
16	14	44	34	904	39.0	-155021.0	254513.0	-5805117.0
16	14	44	34	905	40.0	-161372.0	263033.0	-5804540.0
16	14	44	34	906	41.0	-150332.0	270493.0	-5804446.0
16	14	44	34	906	42.0	-124336.0	276858.0	-5805654.0
16	14	44	34	906	43.0	-107534.0	282767.0	-5805278.0
16	14	44	34	907	44.0	-91064.0	288171.0	-5804648.0
16	14	44	34	907	45.0	-85102.0	293111.0	-5804226.0
16	14	44	34	932	46.0	-80005.0	297177.0	-5805304.0
16	14	44	34	948	47.0	-63637.0	300028.0	-5805287.0
16	14	44	34	977	48.0	-29679.0	302223.0	-5804602.0
16	14	44	34	999	49.0	-8168.0	303716.0	-5804107.0
16	14	44	34	999	50.0	17603.0	304952.0	-5805244.0
16	14	44	35	0	51.0	49964.0	305658.0	-5805559.0
16	14	44	35	0	52.0	54626.0	305675.0	-5804875.0
16	14	44	35	1	54.0	23436.0	302626.0	-5804902.0
16	14	44	35	1	55.0	3141.0	300473.0	-5805959.0
16	14	44	35	2	56.0	-22291.0	296893.0	-5805362.0
16	14	44	35	2	57.0	-36249.0	292834.0	-5804759.0
16	14	44	35	3	58.0	-58904.0	288576.0	-5804417.0
16	14	44	35	3	59.0	-66257.0	283485.0	-5805227.0
16	14	44	35	4	60.0	-55494.0	277929.0	-5804918.0
16	14	44	35	5	61.0	-37548.0	272113.0	-5804511.0
16	14	44	35	5	77.0	423556.0	127738.0	-5805445.0
16	14	44	35	6	78.0	414501.0	116898.0	-5804808.0
16	14	44	35	6	79.0	401794.0	107146.0	-5805584.0
16	14	44	35	7	100.0	-407951.0	-49301.0	-5805119.0
16	14	44	35	7	101.0	-349220.0	-54502.0	-5806351.0
16	14	44	35	8	102.0	-250141.0	-57927.0	-5806179.0
16	14	44	35	8	103.0	-146353.0	-61078.0	-5805454.0
16	14	44	35	9	104.0	-79765.0	-64321.0	-5805214.0
16	14	44	35	9	105.0	-46435.0	-67547.0	-5806312.0
16	14	44	35	28	106.0	-51779.0	-70979.0	-5806307.0
16	14	44	35	28	107.0	-91410.0	-73519.0	-5805597.0
16	14	44	35	29	108.0	-153082.0	-75587.0	-5805380.0
16	14	44	35	29	109.0	-232426.0	-78089.0	-5806676.0
16	14	44	35	30	110.0	-320548.0	-81086.0	-5806719.0
16	14	44	35	30	111.0	-377245.0	-83739.0	-5805986.0
16	14	44	35	30	112.0	-383989.0	-85428.0	-5805516.0
16	14	44	35	51	113.0	-340969.0	-87067.0	-5806575.0
16	14	44	35	51	114.0	-254389.0	-88751.0	-5807163.0
16	14	44	35	52	115.0	-155904.0	-89978.0	-5806449.0
16	14	44	35	52	116.0	-50101.0	-91464.0	-5805852.0
16	14	44	35	53	117.0	40727.0	-92274.0	-5805687.0
16	14	44	35	53	118.0	87129.0	-93933.0	-5807225.0
16	14	44	35	53	119.0	101118.0	-95441.0	-5807133.0
16	14	44	35	54	120.0	89665.0	-96596.0	-5806493.0
16	14	44	35	54	122.0	27075.0	-99866.0	-5807046.0
16	14	44	35	54	123.0	13626.0	-102106.0	-5807521.0
16	14	44	35	55	124.0	2059.0	-104232.0	-5806884.0
16	14	44	35	55	125.0	-12747.0	-106186.0	-5806349.0
16	14	44	35	55	126.0	-25061.0	-107321.0	-5807337.0
16	14	44	35	56	127.0	-23716.0	-108798.0	-5807965.0
16	14	44	35	71	128.0	1423.0	-110454.0	-5807351.0
16	14	44	35	71	129.0	53932.0	-112714.0	-5806740.0
16	14	44	35	72	130.0	122508.0	-113326.0	-5806871.0
16	14	44	35	72	131.0	177769.0	-114871.0	-5807983.0
16	14	44	35	72	132.0	204069.0	-117591.0	-5807479.0
16	14	44	35	73	133.0	205780.0	-120033.0	-5806856.0
16	14	44	35	73	134.0	195884.0	-121837.0	-5806276.0
16	14	44	35	73	135.0	170322.0	-123294.0	-5807455.0
16	14	44	35	74	136.0	135366.0	-126084.0	-5807891.0
16	14	44	35	89	137.0	87050.0	-128351.0	-5807291.0
16	14	44	35	90	138.0	47069.0	-130496.0	-5806623.0
16	14	44	35	90	139.0	27054.0	-132163.0	-5807492.0
16	14	44	35	90	140.0	14753.0	-134674.0	-5808131.0
16	14	44	35	91	141.0	16438.0	-136732.0	-5807572.0
16	14	44	35	91	142.0	32161.0	-138487.0	-5806877.0
16	14	44	35	91	144.0	51966.0	-142354.0	-5808417.0
16	14	44	35	91	145.0	49639.0	-144115.0	-5808019.0
16	14	44	35	92	146.0	53826.0	-145675.0	-5807316.0
16	14	44	35	92	147.0	35701.0	-146535.0	-5806929.0
16	14	44	35	92	148.0	25431.0	-147173.0	-5807972.0
16	14	44	35	92	149.0	21168.0	-148248.0	-5808178.0
16	14	44	35	93	150.0	29913.0	-149286.0	-5807481.0
16	14	44	35	113	151.0	37461.0	-149986.0	-5806894.0
16	14	44	35	131	152.0	27571.0	-149961.0	-5807489.0
16	14	44	35	131	153.0	13151.0	-150116.0	-5808239.0
16	14	44	35	131	154.0	-6492.0	-149938.0	-5807665.0
16	14	44	35	132	155.0	-22161.0	-150090.0	-5807089.0
16	14	44	35	132	156.0	-22790.0	-149840.0	-5807788.0
16	14	44	35	132	157.0	-19197.0	-149903.0	-5808628.0
16	14	44	35	133	158.0	-1605.0	-149609.0	-5808043.0
16	14	44	35	133	159.0	24456.0	-148989.0	-5807403.0
16	14	44	35	133	160.0	51205.0	-148490.0	-5807613.0
16	14	44	35	133	161.0	82362.0	-147781.0	-5808757.0
16	14	44	35	134	162.0	100250.0	-147305.0	-5808321.0
16	14	44	35	134	163.0	115721.0	-146932.0	-5807603.0
16	14	44	35	134	164.0	133967.0	-146150.0	-5807212.0
16	14	44	35	135	165.0	149060.0	-145389.0	-5808295.0
16	14	44	35	135	167.0	155558.0	-142581.0	-5807814.0
16	14	44	35	135	168.0	141281.0	-141519.0	-5807331.0
16	14	44	35	136	169.0	113640.0	-139797.0	-5808194.0
16	14	44	35	136	170.0	86798.0	-137746.0	-5808634.0
16	14	44	35	136	171.0	65597.0	-135974.0	-5807961.0
16	14	44	35	137	172.0	55950.0	-134130.0	-5807464.0
16	14	44	35	158	173.0	42403.0	-132142.0	-5808322.0
16	14	44	35	171	174.0	26177.0	-130623.0	-5808952.0
16	14	44	35	172	175.0	10033.0	-128410.0	-5808254.0
16	14	44	35	172	176.0	168.0	-126487.0	-5807654.0
16	14	44	35	172	177.0	-9999.0	-123881.0	-5807179.0
16	14	44	35	173	178.0	-31223.0	-121167.0	-5807978.0
16	14	44	35	173	179.0	-58867.0	-118721.0	-5807716.0
16	14	44	35	173	180.0	-90516.0	-116484.0	-5807130.0
16	14	44	35	173	181.0	-104303.0	-113475.0	-5807340.0
16	14	44	35	174	182.0	-112269.0	-111359.0	-5808397.0
16	14	44	35	174	183.0	-118341.0	-109747.0	-5807837.0
16	14	44	35	175	184.0	-113049.0	-107769.0	-5807259.0
16	14	44	35	175	185.0	-97420.0	-106429.0	-5807305.0
16	14	44	35	175	186.0	-66019.0	-104559.0	-5808570.0
16	14	44	35	176	187.0	-25650.0	-101833.0	-5808151.0
16	14	44	35	176	189.0	10168.0	-97064.0	-5807463.0
16	14	44	35	176	190.0	21297.0	-94839.0	-5808926.0
16	14	44	35	176	191.0	45799.0	-93444.0	-5808666.0
16	14	44	35	177	192.0	96518.0	-91298.0	-5808032.0
16	14	44	35	177	193.0	122064.0	-89209.0	-5807465.0
16	14	44	35	177	194.0	160523.0	-87154.0	-5808482.0
16	14	44	35	190	195.0	182653.0	-85247.0	-5808916.0
16	14	44	35	208	196.0	179806.0	-83212.0	-5808261.0
16	14	44	35	208	197.0	160716.0	-81210.0	-5807579.0
16	14	44	35	209	198.0	144811.0	-79343.0	-5807327.0
16	14	44	35	209	199.0	128881.0	-78118.0	-5808683.0
16	14	44	35	209	200.0	115427.0	-76096.0	-5808541.0
16	14	44	35	209	201.0	98105.0	-74356.0	-5807904.0
16	14	44	35	210	202.0	68454.0	-73006.0	-5807566.0
16	14	44	35	210	203.0	37974.0	-71387.0	-5808929.0
16	14	44	35	210	204.0	-10422.0	-69343.0	-5808889.0
16	14	44	35	210	205.0	-58066.0	-68074.0	-5808277.0
16	14	44	35	226	206.0	-94092.0	-67242.0	-5807700.0
16	14	44	35	226	207.0	-103621.0	-66389.0	-5808589.0
16	14	44	35	227	208.0	-111264.0	-65580.0	-5809037.0
16	14	44	35	227	209.0	-105211.0	-64887.0	-5808463.0
16	14	44	35	227	210.0	-100746.0	-64261.0	-5807764.0
16	14	44	35	228	212.0	-115408.0	-63384.0	-5809171.0
16	14	44	35	228	213.0	-128217.0	-63408.0	-5808803.0
16	14	44	35	228	214.0	-135609.0	-63119.0	-5808075.0
16	14	44	35	229	215.0	-130049.0	-62828.0	-5807863.0
16	14	44	35	229	216.0	-114752.0	-62706.0	-5808825.0
16	14	44	35	229	217.0	-84068.0	-62108.0	-5808674.0
16	14	44	35	248	218.0	-53380.0	-61526.0	-5807971.0
16	14	44	35	248	219.0	-22921.0	-61192.0	-5807924.0
16	14	44	35	249	220.0	830.0	-60954.0	-5809159.0
16	14	44	35	249	221.0	15725.0	-61286.0	-5808979.0
16	14	44	35	266	222.0	34637.0	-61559.0	-5808262.0
16	14	44	35	267	223.0	61541.0	-62211.0	-5807927.0
16	14	44	35	267	224.0	91793.0	-62469.0	-5809110.0
16	14	44	35	267	225.0	107733.0	-62664.0	-5809246.0
16	14	44	35	268	226.0	118139.0	-62494.0	-5808537.0
16	14	44	35	268	227.0	132628.0	-62763.0	-5807881.0
16	14	44	35	268	228.0	140374.0	-63584.0	-5807987.0
16	14	44	35	269	229.0	144771.0	-63824.0	-5809283.0
16	14	44	35	269	230.0	153591.0	-63239.0	-5808947.0
16	14	44	35	269	231.0	156368.0	-63205.0	-5808299.0
16	14	44	35	269	232.0	145291.0	-62896.0	-5808033.0
16	14	44	35	270	234.0	75416.0	-63022.0	-5808884.0
16	14	44	35	270	235.0	37039.0	-62902.0	-5808242.0
16	14	44	35	270	236.0	3692.0	-63704.0	-5808109.0
16	14	44	35	271	237.0	-13507.0	-63734.0	-5809368.0
16	14	44	35	271	238.0	-15838.0	-63667.0	-5809152.0
16	14	44	35	271	239.0	-7317.0	-63241.0	-5808472.0
16	14	44	35	271	240.0	-182.0	-62830.0	-5808079.0
16	14	44	35	292	241.0	-1232.0	-62827.0	-5808931.0
16	14	44	35	292	242.0	-5436.0	-61753.0	-5809022.0
16	14	44	35	303	243.0	-8536.0	-61099.0	-5808285.0
16	14	44	35	303	244.0	-4568.0	-61139.0	-5807689.0
16	14	44	35	303	245.0	-2457.0	-61155.0	-5807822.0
16	14	44	35	304	246.0	-1556.0	-61458.0	-5809012.0
16	14	44	35	304	247.0	-580.0	-60981.0	-5808502.0
16	14	44	35	304	248.0	2569.0	-60300.0	-5807911.0
16	14	44	35	305	249.0	-838.0	-59412.0	-5807438.0
16	14	44	35	305	250.0	7217.0	-58337.0	-5808252.0
16	14	44	35	305	251.0	10987.0	-57834.0	-5808071.0
16	14	44	35	306	252.0	10443.0	-57464.0	-5807614.0
16	14	44	35	306	253.0	2624.0	-57517.0	-5808656.0
16	14	44	35	306	254.0	-12677.0	-56356.0	-5809029.0
16	14	44	35	307	255.0	-31499.0	-55809.0	-5808348.0
16	14	44	35	337	1.0	-36791.0	-54292.0	-5807946.0
16	14	44	35	348	2.0	-25384.0	-54032.0	-5808919.0
16	14	44	35	382	3.0	-6957.0	-53292.0	-5808302.0
16	14	44	35	428	4.0	5234.0	-52882.0	-5807714.0
16	14	44	35	450	5.0	2654.0	-52406.0	-5807564.0
16	14	44	35	450	6.0	-6884.0	-51079.0	-5808901.0
16	14	44	35	450	7.0	-22306.0	-48932.0	-5808636.0
16	14	44	35	451	8.0	-47191.0	-48094.0	-5808041.0
16	14	44	35	451	9.0	-69372.0	-47441.0	-5807420.0
16	14	44	35	452	10.0	-95372.0	-46372.0	-5807922.0
16	14	44	35	452	11.0	-117039.0	-45254.0	-5808161.0
16	14	44	35	452	12.0	-131517.0	-44589.0	-5807597.0
16	14	44	35	453	13.0	-136447.0	-43645.0	-5807674.0
16	14	44	35	453	14.0	-125178.0	-42001.0	-5808749.0
16	14	44	35	453	15.0	-96148.0	-40557.0	-5808228.0
16	14	44	35	454	23.0	63313.0	-29384.0	-5808902.0
16	14	44	35	454	24.0	63569.0	-27985.0	-5808319.0
16	14	44	35	455	46.0	-59732.0	1157.0	-5808529.0
16	14	44	35	455	68.0	90803.0	22990.0	-5807259.0
16	14	44	35	456	69.0	107116.0	23308.0	-5806699.0
16	14	44	35	456	70.0	126668.0	23353.0	-5807110.0
16	14	44	35	457	71.0	140397.0	23794.0	-5807941.0
16	14	44	35	458	72.0	146118.0	25046.0	-5807317.0
16	14	44	35	458	73.0	143051.0	25988.0	-5806707.0
16	14	44	35	492	74.0	128055.0	26811.0	-5806607.0
16	14	44	35	493	75.0	106571.0	27188.0	-5807929.0
16	14	44	35	493	76.0	73046.0	27723.0	-5807586.0
16	14	44	35	494	77.0	27174.0	28484.0	-5806989.0
16	14	44	35	494	78.0	-33011.0	29313.0	-5806643.0
16	14	44	35	494	79.0	-95983.0	29508.0	-5807586.0
16	14	44	35	495	80.0	-159771.0	29539.0	-5807334.0
16	14	44	35	495	81.0	-216741.0	29663.0	-5806717.0
16	14	44	35	495	82.0	-258309.0	29988.0	-5806930.0
16	14	44	35	496	83.0	-287035.0	30032.0	-5807728.0
16	14	44	35	496	84.0	-301565.0	30471.0	-5807101.0
16	14	44	35	496	85.0	-309107.0	31579.0	-5806502.0
16	14	44	35	496	86.0	-294775.0	31209.0	-5806077.0
16	14	44	35	497	87.0	-264948.0	30948.0	-5807048.0
16	14	44	35	497	88.0	-221261.0	30331.0	-5806884.0
16	14	44	35	497	90.0	-108510.0	29716.0	-5806096.0
16	14	44	35	497	91.0	-47313.0	29560.0	-5807014.0
16	14	44	35	498	92.0	5870.0	28940.0	-5806669.0
16	14	44	35	498	93.0	56601.0	28951.0	-5806346.0
16	14	44	35	498	94.0	107342.0	29374.0	-5807426.0
16	14	44	35	499	95.0	145631.0	29895.0	-5807376.0
16	14	44	35	499	96.0	182586.0	30293.0	-5806671.0
16	14	44	35	524	97.0	204954.0	30716.0	-5806199.0
16	14	44	35	524	98.0	210781.0	31058.0	-5807150.0
16	14	44	35	524	99.0	197214.0	32647.0	-5807419.0
16	14	44	35	524	100.0	171794.0	32800.0	-5806698.0
16	14	44	35	525	101.0	137517.0	32236.0	-5806102.0
16	14	44	35	525	102.0	93834.0	32612.0	-5806541.0
16	14	44	35	525	103.0	50316.0	32098.0	-5807444.0
16	14	44	35	525	104.0	4569.0	31718.0	-5806816.0
16	14	44	35	555	105.0	-43277.0	31547.0	-5806219.0
16	14	44	35	555	106.0	-88245.0	31232.0	-5806066.0
16	14	44	35	555	107.0	-125122.0	30822.0	-5807115.0
16	14	44	35	555	108.0	-142331.0	30764.0	-5806702.0
16	14	44	35	556	109.0	-153649.0	30936.0	-5806116.0
16	14	44	35	556	110.0	-161179.0	31496.0	-5805974.0
16	14	44	35	556	111.0	-163944.0	32126.0	-5807059.0
16	14	44	35	556	113.0	-138200.0	31619.0	-5806022.0
16	14	44	35	557	114.0	-115622.0	31049.0	-5805381.0
16	14	44	35	557	115.0	-91853.0	30556.0	-5805876.0
16	14	44	35	557	116.0	-60929.0	30769.0	-5806097.0
16	14	44	35	557	117.0	-34292.0	30907.0	-5805509.0
16	14	44	35	558	118.0	-2141.0	30585.0	-5805748.0
16	14	44	35	584	119.0	29928.0	30201.0	-5806838.0
16	14	44	35	584	120.0	66961.0	30759.0	-5806327.0
16	14	44	35	585	121.0	104618.0	31236.0	-5805703.0
16	14	44	35	585	122.0	145885.0	30840.0	-5805375.0
16	14	44	35	585	123.0	195755.0	30586.0	-5806634.0
16	14	44	35	586	124.0	245772.0	30137.0	-5806571.0
16	14	44	35	586	125.0	293327.0	29624.0	-5805937.0
16	14	44	35	586	126.0	333094.0	29138.0	-5805517.0
16	14	44	35	586	127.0	351082.0	28799.0	-5806599.0
16	14	44	35	586	128.0	338384.0	28939.0	-5806612.0
16	14	44	35	587	129.0	291660.0	28699.0	-5805959.0
16	14	44	35	587	130.0	224139.0	28489.0	-5805302.0
16	14	44	35	587	131.0	157404.0	28259.0	-5805452.0
16	14	44	35	587	132.0	109257.0	27870.0	-5806097.0
16	14	44	35	588	133.0	69063.0	27821.0	-5805558.0
16	14	44	35	588	135.0	-132654.0	27965.0	-5806100.0
16	14	44	35	588	136.0	-255444.0	27621.0	-5806194.0
16	14	44	35	588	137.0	-336833.0	26789.0	-5805537.0
16	14	44	35	589	138.0	-378330.0	26494.0	-5805239.0
16	14	44	35	589	139.0	-349269.0	26585.0	-5806384.0
16	14	44	35	589	140.0	-280447.0	26483.0	-5806309.0
16	14	44	35	589	141.0	-234392.0	26299.0	-5805638.0
16	14	44	35	614	142.0	-215937.0	26278.0	-5805021.0
16	14	44	35	614	143.0	-187796.0	26407.0	-5805314.0
16	14	44	35	615	144.0	-136810.0	26936.0	-5805888.0
16	14	44	35	653	145.0	-73404.0	26648.0	-5805305.0
16	14	44	35	673	146.0	-31591.0	26529.0	-5804824.0
16	14	44	35	704	147.0	-12786.0	26279.0	-5805975.0
16	14	44	35	704	148.0	12942.0	26094.0	-5806349.0
16	14	44	35	704	149.0	56240.0	25284.0	-5805711.0
16	14	44	35	705	150.0	96297.0	25225.0	-5805071.0
16	14	44	35	705	151.0	93511.0	25215.0	-5804927.0
16	14	44	35	705	152.0	40373.0	25375.0	-5805501.0
16	14	44	35	705	153.0	-24959.0	25378.0	-5804987.0
16	14	44	35	734	154.0	-54970.0	25297.0	-5804767.0
16	14	44	35	735	155.0	-39868.0	26065.0	-5806036.0
16	14	44	35	735	156.0	-6787.0	25740.0	-5805921.0
16	14	44	35	735	158.0	32570.0	24744.0	-5804900.0
16	14	44	35	735	159.0	59199.0	24381.0	-5806015.0
16	14	44	35	736	160.0	102253.0	24484.0	-5806092.0
16	14	44	35	736	180.0	-242951.0	24876.0	-5805536.0
16	14	44	35	736	181.0	-246286.0	24033.0	-5805340.0
16	14	44	35	736	182.0	-245692.0	23653.0	-5804747.0
16	14	44	35	737	203.0	90092.0	23179.0	-5805161.0
16	14	44	35	737	204.0	67508.0	22693.0	-5805887.0
16	14	44	35	737	205.0	40949.0	22336.0	-5805239.0
16	14	44	35	737	206.0	10781.0	22343.0	-5804684.0
16	14	44	35	737	207.0	-24887.0	22673.0	-5805044.0
16	14	44	35	738	208.0	-65871.0	23155.0	-5806066.0
16	14	44	35	765	209.0	-99856.0	23689.0	-5805488.0
16	14	44	35	765	210.0	-117339.0	24310.0	-5804901.0
16	14	44	35	766	211.0	-126148.0	25598.0	-5804274.0
16	14	44	35	766	212.0	-114128.0	26636.0	-5804934.0
16	14	44	35	766	213.0	-87694.0	27387.0	-5805126.0
16	14	44	35	766	214.0	-55784.0	28775.0	-5804537.0
16	14	44	35	767	215.0	-24226.0	29964.0	-5804020.0
16	14	44	35	767	216.0	-4992.0	31453.0	-5804838.0
16	14	44	35	767	217.0	5369.0	33996.0	-5804731.0
16	14	44	35	767	218.0	5205.0	37158.0	-5804357.0
16	14	44	35	768	219.0	-1616.0	39571.0	-5805459.0
16	14	44	35	768	220.0	-15786.0	42060.0	-5805713.0
16	14	44	35	768	221.0	-27321.0	46319.0	-5804998.0
16	14	44	35	768	222.0	-30464.0	50859.0	-5804452.0
16	14	44	35	769	223.0	-22806.0	55143.0	-5805100.0
16	14	44	35	769	225.0	23061.0	65600.0	-5805347.0
16	14	44	35	769	226.0	55272.0	71545.0	-5804725.0
16	14	44	35	769	227.0	87521.0	78014.0	-5804687.0
16	14	44	35	770	228.0	112939.0	85059.0	-5805794.0
16	14	44	35	770	229.0	131821.0	92471.0	-5805344.0
16	14	44	35	770	230.0	139293.0	100639.0	-5804714.0
16	14	44	35	770	231.0	139911.0	109370.0	-5804446.0
16	14	44	35	797	232.0	138079.0	118396.0	-5805701.0
16	14	44	35	797	233.0	130968.0	127786.0	-5805546.0
16	14	44	35	798	234.0	114513.0	138084.0	-5804863.0
16	14	44	35	798	235.0	91384.0	147916.0	-5804465.0
16	14	44	35	798	236.0	66779.0	157601.0	-5805596.0
16	14	44	35	799	237.0	42340.0	167131.0	-5805632.0
16	14	44	35	799	238.0	24191.0	177359.0	-5804955.0
16	14	44	35	799	239.0	14316.0	188786.0	-5804296.0
16	14	44	35	799	240.0	8169.0	198999.0	-5804437.0
16	14	44	35	800	241.0	2593.0	208154.0	-5804810.0
16	14	44	35	800	242.0	4937.0	217853.0	-5804225.0
16	14	44	35	800	243.0	8679.0	227272.0	-5803946.0
16	14	44	35	800	244.0	19088.0	236282.0	-5805227.0
16	14	44	35	801	245.0	29234.0	244136.0	-5805083.0
16	14	44	35	801	246.0	27018.0	251731.0	-5804394.0
16	14	44	35	801	248.0	5102.0	265209.0	-5803796.0
16	14	44	35	801	249.0	-9076.0	270240.0	-5804292.0
16	14	44	35	828	250.0	-24839.0	276203.0	-5803706.0
16	14	44	35	828	251.0	-37768.0	281089.0	-5803744.0
16	14	44	35	829	252.0	-51769.0	285468.0	-5804874.0
16	14	44	35	829	253.0	-59469.0	289143.0	-5804494.0
16	14	44	35	859	254.0	-59259.0	292459.0	-5803847.0
16	14	44	35	859	255.0	-52692.0	295052.0	-5803706.0
16	14	44	35	859	0.0	-40321.0	296629.0	-5804931.0
16	14	44	35	860	1.0	-37031.0	296439.0	-5804694.0
16	14	44	35	860	2.0	-27404.0	295966.0	-5804012.0
16	14	44	35	860	3.0	-17384.0	295208.0	-5803419.0
16	14	44	35	860	4.0	-6175.0	293506.0	-5804097.0
16	14	44	35	861	5.0	7989.0	290966.0	-5805016.0
16	14	44	35	861	6.0	18539.0	287950.0	-5804375.0
16	14	44	35	861	7.0	23559.0	285023.0	-5803777.0
16	14	44	35	862	8.0	22909.0	281048.0	-5803422.0
16	14	44	35	862	9.0	23468.0	277296.0	-5804194.0
16	14	44	35	862	10.0	28801.0	273046.0	-5803837.0
16	14	44	35	862	11.0	46648.0	266966.0	-5803534.0
16	14	44	35	862	12.0	69965.0	259819.0	-5804791.0
16	14	44	35	863	14.0	86074.0	244320.0	-5804236.0
16	14	44	35	863	15.0	81299.0	236364.0	-5803757.0
16	14	44	35	863	16.0	69613.0	228240.0	-5804531.0
16	14	44	35	863	17.0	52270.0	219456.0	-5805065.0
16	14	44	35	864	18.0	29364.0	210873.0	-5804371.0
16	14	44	35	864	19.0	4342.0	201931.0	-5803748.0
16	14	44	35	864	20.0	-18071.0	192853.0	-5803632.0
16	14	44	35	889	21.0	-37283.0	183670.0	-5804854.0
16	14	44	35	890	22.0	-53054.0	174840.0	-5804474.0
16	14	44	35	890	23.0	-59054.0	165818.0	-5803884.0
16	14	44	35	890	24.0	-60558.0	155653.0	-5803391.0
16	14	44	35	890	25.0	-51441.0	144925.0	-5804157.0
16	14	44	35	891	26.0	-38434.0	134829.0	-5804049.0
16	14	44	35	891	27.0	-30877.0	125111.0	-5803496.0
16	14	44	35	891	28.0	-38267.0	114501.0	-5803921.0
16	14	44	35	891	29.0	-79562.0	104380.0	-5805024.0
16	14	44	35	892	30.0	-174216.0	94373.0	-5804459.0
16	14	44	35	892	31.0	-256949.0	84603.0	-5803846.0
16	14	44	35	892	32.0	-218659.0	74819.0	-5803348.0
16	14	44	35	892	33.0	-70690.0	64771.0	-5803994.0
16	14	44	35	893	34.0	135378.0	55134.0	-5803748.0
16	14	44	35	893	35.0	299115.0	45793.0	-5803191.0
16	14	44	35	893	37.0	368753.0	27719.0	-5804763.0
16	14	44	35	893	38.0	402253.0	18718.0	-5804151.0
16	14	44	35	894	39.0	379315.0	9751.0	-5803548.0
16	14	44	35	894	40.0	308199.0	2169.0	-5803627.0
16	14	44	35	894	41.0	208539.0	-5134.0	-5804754.0
16	14	44	35	895	42.0	85241.0	-12611.0	-5804239.0
16	14	44	35	922	43.0	-33535.0	-19982.0	-5803657.0
16	14	44	35	949	44.0	-133626.0	-26614.0	-5803481.0
16	14	44	35	949	45.0	-205761.0	-33106.0	-5804731.0
16	14	44	35	950	46.0	-225538.0	-40178.0	-5804436.0
16	14	44	35	950	47.0	-196220.0	-46656.0	-5803833.0
16	14	44	35	950	48.0	-132655.0	-52498.0	-5803277.0
16	14	44	35	950	49.0	-71996.0	-58039.0	-5803959.0
16	14	44	35	951	50.0	-36052.0	-63032.0	-5803890.0
16	14	44	35	951	51.0	-15939.0	-68163.0	-5803306.0
16	14	44	35	951	52.0	27771.0	-72409.0	-5803507.0
16	14	44	35	951	53.0	44629.0	-76244.0	-5804929.0
16	14	44	35	952	54.0	-2795.0	-80431.0	-5804482.0
16	14	44	35	952	55.0	-93781.0	-83764.0	-5803859.0
16	14	44	35	952	56.0	-177465.0	-86911.0	-5803348.0
16	14	44	35	952	57.0	-216682.0	-89836.0	-5804464.0
16	14	44	35	953	59.0	-134529.0	-94297.0	-5803975.0
16	14	44	35	953	60.0	-32578.0	-97736.0	-5803773.0
16	14	44	35	953	61.0	78971.0	-100558.0	-5805148.0
16	14	44	35	953	62.0	182941.0	-102688.0	-5804997.0
16	14	44	35	954	63.0	241633.0	-104797.0	-5804337.0
16	14	44	35	954	64.0	253898.0	-106166.0	-5803705.0
16	14	44	35	954	65.0	232312.0	-108106.0	-5803891.0
16	14	44	35	980	66.0	196713.0	-109962.0	-5804335.0
16	14	44	35	981	67.0	169180.0	-111313.0	-5803756.0
16	14	44	35	981	68.0	154632.0	-111437.0	-5803380.0
16	14	44	35	981	69.0	149840.0	-112399.0	-5804644.0
16	14	44	35	981	70.0	146330.0	-114207.0	-5804694.0
16	14	44	35	982	71.0	136511.0	-115844.0	-5804032.0
16	14	44	35	982	72.0	116561.0	-117788.0	-5803547.0
16	14	44	35	982	73.0	89719.0	-119672.0	-5804520.0
16	14	44	35	982	74.0	58013.0	-121299.0	-5804832.0
16	14	44	35	983	75.0	11269.0	-123566.0	-5804171.0
16	14	44	35	983	76.0	-38080.0	-125085.0	-5803655.0
16	14	44	35	983	77.0	-82203.0	-126359.0	-5804566.0
16	14	44	35	983	78.0	-106192.0	-127856.0	-5804981.0
16	14	44	35	984	79.0	-116077.0	-129163.0	-5804309.0
16	14	44	35	984	80.0	-106697.0	-129956.0	-5803791.0
16	14	44	35	984	82.0	-50678.0	-131226.0	-5805462.0
16	14	44	35	984	83.0	-19308.0	-133368.0	-5804722.0
16	14	44	35	985	84.0	10267.0	-134996.0	-5804116.0
16	14	44	35	985	85.0	35154.0	-136121.0	-5803737.0
16	14	44	35	985	86.0	59569.0	-136741.0	-5804621.0
16	14	44	35	985	87.0	79605.0	-137931.0	-5804351.0
16	14	44	36	12	88.0	103043.0	-139012.0	-5803832.0
16	14	44	36	13	89.0	116460.0	-140276.0	-5804722.0
16	14	44	36	45	90.0	128566.0	-141119.0	-5805579.0
16	14	44	36	45	91.0	133771.0	-141902.0	-5804941.0
16	14	44	36	45	92.0	132593.0	-142438.0	-5804334.0
16	14	44	36	46	93.0	127829.0	-142527.0	-5804497.0
16	14	44	36	46	94.0	117630.0	-143695.0	-5805746.0
16	14	44	36	46	95.0	100422.0	-144679.0	-5805226.0
16	14	44	36	46	96.0	84501.0	-145958.0	-5804619.0
16	14	44	36	47	97.0	71201.0	-146464.0	-5804242.0
16	14	44	36	80	98.0	62918.0	-146429.0	-5805108.0
16	14	44	36	80	99.0	49155.0	-146562.0	-5804777.0
16	14	44	36	80	100.0	36873.0	-146519.0	-5804159.0
16	14	44	36	80	101.0	20117.0	-146050.0	-5804359.0
16	14	44	36	81	102.0	-7425.0	-145045.0	-5805712.0
16	14	44	36	81	104.0	-43599.0	-144141.0	-5804629.0
16	14	44	36	81	105.0	-55704.0	-144052.0	-5804092.0
16	14	44	36	82	106.0	-61640.0	-143013.0	-5804728.0
16	14	44	36	82	107.0	-62987.0	-141247.0	-5804572.0
16	14	44	36	82	108.0	-47299.0	-139257.0	-5804059.0
16	14	44	36	82	109.0	-18996.0	-136840.0	-5804832.0
16	14	44	36	83	110.0	15866.0	-135954.0	-5805392.0
16	14	44	36	83	111.0	62524.0	-134699.0	-5804707.0
16	14	44	36	83	112.0	107108.0	-133597.0	-5804104.0
16	14	44	36	83	113.0	145719.0	-132438.0	-5804319.0
16	14	44	36	84	126.0	67301.0	-107540.0	-5805196.0
16	14	44	36	84	127.0	62778.0	-105708.0	-5805807.0
16	14	44	36	84	128.0	53881.0	-104436.0	-5805212.0
16	14	44	36	84	129.0	39145.0	-101827.0	-5804550.0
16	14	44	36	85	130.0	26073.0	-99659.0	-5804524.0
16	14	44	36	85	131.0	17539.0	-97615.0	-5805709.0
16	14	44	36	85	132.0	12254.0	-95074.0	-5805365.0
16	14	44	36	113	133.0	7422.0	-92845.0	-5804704.0
16	14	44	36	113	134.0	-3027.0	-90357.0	-5804157.0
16	14	44	36	114	135.0	-17268.0	-88009.0	-5805189.0
16	14	44	36	114	136.0	-40719.0	-86406.0	-5805543.0
16	14	44	36	114	137.0	-72387.0	-84960.0	-5804931.0
16	14	44	36	115	138.0	-103887.0	-82776.0	-5804362.0
16	14	44	36	115	139.0	-132864.0	-80785.0	-5805477.0
16	14	44	36	115	140.0	-153445.0	-79446.0	-5805941.0
16	14	44	36	116	141.0	-169127.0	-77664.0	-5805339.0
16	14	44	36	116	142.0	-172332.0	-75754.0	-5804655.0
16	14	44	36	116	143.0	-169407.0	-74502.0	-5805202.0
16	14	44	36	116	144.0	-160051.0	-72470.0	-5805972.0
16	14	44	36	117	145.0	-147731.0	-71329.0	-5805432.0
16	14	44	36	117	146.0	-125589.0	-70334.0	-5804688.0
16	14	44	36	117	147.0	-108812.0	-69039.0	-5804644.0
16	14	44	36	117	149.0	-88494.0	-67249.0	-5805382.0
16	14	44	36	146	150.0	-82723.0	-66313.0	-5804650.0
16	14	44	36	146	151.0	-74751.0	-65426.0	-5804284.0
16	14	44	36	146	152.0	-63358.0	-64339.0	-5805459.0
16	14	44	36	147	153.0	-49220.0	-62899.0	-5805716.0
16	14	44	36	147	154.0	-32225.0	-62067.0	-5805018.0
16	14	44	36	179	155.0	-15744.0	-61881.0	-5804600.0
16	14	44	36	180	156.0	1127.0	-61242.0	-5805626.0
16	14	44	36	180	157.0	23085.0	-59797.0	-5805963.0
16	14	44	36	180	158.0	51309.0	-59516.0	-5805238.0
16	14	44	36	181	159.0	82748.0	-59815.0	-5804711.0
16	14	44	36	181	160.0	111983.0	-59564.0	-5805519.0
16	14	44	36	181	161.0	145594.0	-58787.0	-5806054.0
16	14	44	36	181	162.0	184118.0	-59424.0	-5805382.0
16	14	44	36	182	163.0	213433.0	-59426.0	-5804688.0
16	14	44	36	182	164.0	228561.0	-58815.0	-5804712.0
16	14	44	36	182	165.0	219016.0	-58442.0	-5805821.0
16	14	44	36	182	166.0	193957.0	-58741.0	-5805414.0
16	14	44	36	182	167.0	149714.0	-59302.0	-5804747.0
16	14	44	36	183	168.0	100096.0	-59365.0	-5804381.0
16	14	44	36	183	169.0	49726.0	-59468.0	-5805520.0
16	14	44	36	183	171.0	-34771.0	-60766.0	-5804935.0
16	14	44	36	183	172.0	-59359.0	-61637.0	-5804522.0
16	14	44	36	184	173.0	-63837.0	-62415.0	-5805524.0
16	14	44	36	184	174.0	-54599.0	-62974.0	-5805696.0
16	14	44	36	184	175.0	-46363.0	-63387.0	-5805004.0
16	14	44	36	184	176.0	-39726.0	-62794.0	-5804509.0
16	14	44	36	185	177.0	-39458.0	-62634.0	-5805471.0
16	14	44	36	212	178.0	-44313.0	-63125.0	-5805949.0
16	14	44	36	213	179.0	-51190.0	-63800.0	-5805201.0
16	14	44	36	213	180.0	-54718.0	-63962.0	-5804592.0
16	14	44	36	213	181.0	-54146.0	-64107.0	-5804260.0
16	14	44	36	214	182.0	-58881.0	-65029.0	-5805027.0
16	14	44	36	214	183.0	-67382.0	-65388.0	-5804638.0
16	14	44	36	214	184.0	-81210.0	-65114.0	-5804211.0
16	14	44	36	215	185.0	-99856.0	-65589.0	-5805370.0
16	14	44	36	215	186.0	-117254.0	-66552.0	-5805982.0
16	14	44	36	215	187.0	-128630.0	-67011.0	-5805284.0
16	14	44	36	215	188.0	-133348.0	-67287.0	-5804781.0
16	14	44	36	216	189.0	-138763.0	-67061.0	-5805597.0
16	14	44	36	216	190.0	-129869.0	-66666.0	-5806179.0
16	14	44	36	216	191.0	-110276.0	-66849.0	-5805514.0
16	14	44	36	216	192.0	-76646.0	-66441.0	-5804930.0
16	14	44	36	217	194.0	10486.0	-65486.0	-5806081.0
16	14	44	36	217	195.0	54691.0	-65288.0	-5805537.0
16	14	44	36	217	196.0	94134.0	-65304.0	-5804909.0
16	14	44	36	217	197.0	119303.0	-64576.0	-5804498.0
16	14	44	36	218	198.0	131938.0	-63687.0	-5805666.0
16	14	44	36	218	199.0	136959.0	-63179.0	-5805660.0
16	14	44	36	247	200.0	131228.0	-62434.0	-5805026.0
16	14	44	36	248	201.0	114504.0	-61516.0	-5804387.0
16	14	44	36	248	202.0	90379.0	-60629.0	-5804797.0
16	14	44	36	248	203.0	69991.0	-59995.0	-5805156.0
16	14	44	36	248	204.0	57109.0	-60247.0	-5804600.0
16	14	44	36	249	205.0	58543.0	-60227.0	-5804717.0
16	14	44	36	249	206.0	67461.0	-59151.0	-5805881.0
16	14	44	36	249	207.0	78738.0	-57887.0	-5805382.0
16	14	44	36	250	208.0	85491.0	-57241.0	-5804759.0
16	14	44	36	250	209.0	84488.0	-56659.0	-5804565.0
16	14	44	36	250	210.0	82909.0	-55672.0	-5805799.0
16	14	44	36	250	211.0	78240.0	-54847.0	-5805512.0
16	14	44	36	251	212.0	66442.0	-54038.0	-5804871.0
16	14	44	36	251	213.0	49824.0	-54053.0	-5804237.0
16	14	44	36	251	214.0	29188.0	-53357.0	-5804535.0
16	14	44	36	252	216.0	-13806.0	-50536.0	-5804299.0
16	14	44	36	252	217.0	-34660.0	-48952.0	-5804123.0
16	14	44	36	282	218.0	-57056.0	-48283.0	-5805337.0
16	14	44	36	282	219.0	-78294.0	-46721.0	-5805098.0
16	14	44	36	283	220.0	-91691.0	-44869.0	-5804477.0
16	14	44	36	283	221.0	-95005.0	-43370.0	-5804289.0
16	14	44	36	283	222.0	-91091.0	-42144.0	-5805712.0
16	14	44	36	283	223.0	-71799.0	-40471.0	-5805597.0
16	14	44	36	283	224.0	-45631.0	-39211.0	-5804924.0
16	14	44	36	284	225.0	-22042.0	-37447.0	-5804262.0
16	14	44	36	284	226.0	-7598.0	-36194.0	-5804349.0
16	14	44	36	317	227.0	8806.0	-35107.0	-5804836.0
16	14	44	36	317	228.0	20868.0	-33921.0	-5804264.0
16	14	44	36	318	229.0	33028.0	-32672.0	-5803889.0
16	14	44	36	318	230.0	43882.0	-31373.0	-5805091.0
16	14	44	36	318	231.0	53621.0	-30017.0	-5805173.0
16	14	44	36	318	232.0	55546.0	-28428.0	-5804492.0
16	14	44	36	319	233.0	53427.0	-27461.0	-5803865.0
16	14	44	36	319	234.0	42286.0	-25656.0	-5803916.0
16	14	44	36	319	235.0	33954.0	-24027.0	-5804962.0
16	14	44	36	319	236.0	33897.0	-23188.0	-5804472.0
16	14	44	36	320	237.0	56214.0	-22695.0	-5803969.0
16	14	44	36	320	239.0	150743.0	-19787.0	-5805491.0
16	14	44	36	320	240.0	190281.0	-19330.0	-5804777.0
16	14	44	36	320	241.0	230757.0	-18061.0	-5804226.0
16	14	44	36	321	242.0	248091.0	-16048.0	-5804883.0
16	14	44	36	321	243.0	234927.0	-14273.0	-5805773.0
16	14	44	36	321	244.0	212721.0	-12555.0	-5805098.0
16	14	44	36	356	245.0	184891.0	-10840.0	-5804469.0
16	14	44	36	357	246.0	161838.0	-9412.0	-5803834.0
16	14	44	36	357	247.0	144059.0	-6939.0	-5804443.0
16	14	44	36	357	248.0	132229.0	-5396.0	-5804456.0
16	14	44	36	357	249.0	121233.0	-4634.0	-5803873.0
16	14	44	36	358	250.0	97631.0	-3524.0	-5803976.0
16	14	44	36	358	251.0	72156.0	-2308.0	-5805084.0
16	14	44	36	358	252.0	40404.0	-1019.0	-5804590.0
16	14	44	36	358	253.0	-2952.0	73.0	-5803996.0
16	14	44	36	359	254.0	-49041.0	1170.0	-5803861.0
16	14	44	36	359	255.0	-91154.0	2814.0	-5804999.0
16	14	44	36	359	0.0	-126712.0	4180.0	-5804581.0
16	14	44	36	360	1.0	-155827.0	5037.0	-5803979.0
16	14	44	36	360	2.0	-172301.0	6059.0	-5803345.0
16	14	44	36	360	3.0	-176644.0	7136.0	-5803802.0
16	14	44	36	360	5.0	-192670.0	9806.0	-5803410.0
16	14	44	36	361	6.0	-206700.0	10079.0	-5803396.0
16	14	44	36	361	7.0	-223869.0	11008.0	-5804899.0
16	14	44	36	361	8.0	-227802.0	12703.0	-5804579.0
16	14	44	36	361	9.0	-228049.0	13624.0	-5803953.0
16	14	44	36	362	10.0	-226555.0	14943.0	-5803476.0
16	14	44	36	362	11.0	-218522.0	15339.0	-5804562.0
16	14	44	36	393	12.0	-220087.0	15929.0	-5804666.0
16	14	44	36	394	13.0	-224813.0	17024.0	-5804037.0
16	14	44	36	394	14.0	-233326.0	18218.0	-5803437.0
16	14	44	36	394	15.0	-242157.0	18626.0	-5803961.0
16	14	44	36	395	16.0	-246542.0	18979.0	-5804185.0
16	14	44	36	395	17.0	-245287.0	19116.0	-5803599.0
16	14	44	36	395	18.0	-232819.0	19415.0	-5803541.0
16	14	44	36	396	19.0	-210350.0	20429.0	-5804595.0
16	14	44	36	396	20.0	-181600.0	21482.0	-5804154.0
16	14	44	36	396	21.0	-146461.0	21448.0	-5803522.0
16	14	44	36	396	22.0	-100249.0	22054.0	-5802871.0
16	14	44	36	397	23.0	-46651.0	22696.0	-5803337.0
16	14	44	36	397	24.0	2863.0	23958.0	-5803924.0
16	14	44	36	397	25.0	41655.0	23693.0	-5803394.0
16	14	44	36	397	26.0	68288.0	24568.0	-5803282.0
16	14	44	36	398	28.0	65836.0	26238.0	-5804441.0
16	14	44	36	398	29.0	47895.0	25494.0	-5803825.0
16	14	44	36	398	30.0	29551.0	25708.0	-5803254.0
16	14	44	36	399	31.0	16723.0	26323.0	-5803944.0
16	14	44	36	399	32.0	6207.0	26915.0	-5804132.0
16	14	44	36	399	33.0	1233.0	27135.0	-5803531.0
16	14	44	36	429	34.0	-2937.0	27779.0	-5803287.0
16	14	44	36	430	35.0	-8626.0	28164.0	-5804776.0
16	14	44	36	430	36.0	-12374.0	29596.0	-5804657.0
16	14	44	36	430	37.0	-14277.0	30138.0	-5804030.0
16	14	44	36	431	38.0	-7589.0	29657.0	-5803405.0
16	14	44	36	431	39.0	-1902.0	29334.0	-5803777.0
16	14	44	36	431	40.0	4.0	29778.0	-5804456.0
16	14	44	36	432	41.0	-3425.0	29960.0	-5803844.0
16	14	44	36	432	42.0	-16891.0	29542.0	-5803332.0
16	14	44	36	432	43.0	-27727.0	29659.0	-5804322.0
16	14	44	36	432	44.0	-38836.0	29961.0	-5804739.0
16	14	44	36	433	45.0	-50326.0	30731.0	-5804091.0
16	14	44	36	433	46.0	-58771.0	30900.0	-5803442.0
16	14	44	36	433	47.0	-69285.0	30798.0	-5803363.0
16	14	44	36	433	48.0	-77312.0	30754.0	-5803849.0
16	14	44	36	434	50.0	-72449.0	31336.0	-5802777.0
16	14	44	36	434	51.0	-57980.0	30978.0	-5803491.0
16	14	44	36	463	52.0	-41334.0	30069.0	-5803776.0
16	14	44	36	463	53.0	-22452.0	30758.0	-5803057.0
16	14	44	36	463	54.0	-7444.0	31243.0	-5802496.0
16	14	44	36	495	55.0	1211.0	31363.0	-5803157.0
16	14	44	36	496	56.0	9731.0	31822.0	-5803817.0
16	14	44	36	496	57.0	20458.0	32608.0	-5803169.0
16	14	44	36	496	58.0	33712.0	32919.0	-5802583.0
16	14	44	36	497	59.0	53151.0	32366.0	-5803071.0
16	14	44	36	497	60.0	69244.0	31659.0	-5803951.0
16	14	44	36	497	61.0	77330.0	31459.0	-5803327.0
16	14	44	36	497	62.0	80969.0	31383.0	-5802716.0
16	14	44	36	498	63.0	76630.0	31288.0	-5802482.0
16	14	44	36	498	64.0	69160.0	30508.0	-5803370.0
16	14	44	36	498	65.0	65151.0	30026.0	-5802998.0
16	14	44	36	499	66.0	68443.0	30091.0	-5802396.0
16	14	44	36	499	73.0	76290.0	29466.0	-5802773.0
16	14	44	36	499	74.0	-77544.0	28813.0	-5802377.0
16	14	44	36	499	75.0	-216676.0	28718.0	-5803432.0
16	14	44	36	500	76.0	-310710.0	28807.0	-5803641.0
16	14	44	36	500	77.0	-358272.0	28558.0	-5802959.0
16	14	44	36	500	78.0	-329703.0	29104.0	-5802414.0
16	14	44	36	526	79.0	-261144.0	29123.0	-5803010.0
16	14	44	36	527	80.0	-220091.0	29137.0	-5803856.0
16	14	44	36	527	81.0	-185218.0	29819.0	-5803224.0
16	14	44	36	527	82.0	-117167.0	30213.0	-5802608.0
16	14	44	36	528	83.0	-53040.0	30161.0	-5802083.0
16	14	44	36	528	84.0	-10249.0	30226.0	-5802971.0
16	14	44	36	528	85.0	-9014.0	29476.0	-5802875.0
16	14	44	36	528	86.0	-36147.0	29256.0	-5802284.0
16	14	44	36	529	87.0	-49221.0	29311.0	-5802658.0
16	14	44	36	529	88.0	-37350.0	29036.0	-5803684.0
16	14	44	36	529	89.0	-21498.0	28515.0	-5803104.0
16	14	44	36	529	90.0	-8892.0	28351.0	-5802502.0
16	14	44	36	530	91.0	31280.0	28456.0	-5802121.0
16	14	44	36	530	92.0	107385.0	28450.0	-5803209.0
16	14	44	36	530	93.0	212038.0	28089.0	-5803072.0
16	14	44	36	531	95.0	273028.0	28529.0	-5801968.0
16	14	44	36	531	96.0	245086.0	27759.0	-5803100.0
16	14	44	36	531	97.0	222068.0	27656.0	-5803202.0
16	14	44	36	531	98.0	220417.0	27803.0	-5802586.0
16	14	44	36	532	99.0	233929.0	27104.0	-5801924.0
16	14	44	36	532	100.0	257045.0	26972.0	-5802405.0
16	14	44	36	532	101.0	268809.0	27210.0	-5802622.0
16	14	44	36	558	102.0	266124.0	26631.0	-5802047.0
16	14	44	36	558	103.0	241891.0	27112.0	-5801516.0
16	14	44	36	559	104.0	201794.0	27940.0	-5802289.0
16	14	44	36	559	105.0	165909.0	28146.0	-5802235.0
16	14	44	36	559	106.0	132928.0	28391.0	-5801719.0
16	14	44	36	560	107.0	99396.0	28275.0	-5802418.0
16	14	44	36	560	108.0	58253.0	28001.0	-5803069.0
16	14	44	36	560	109.0	22701.0	28072.0	-5802371.0
16	14	44	36	561	110.0	-412.0	28388.0	-5801791.0
16	14	44	36	561	111.0	-13072.0	28776.0	-5802209.0
16	14	44	36	562	112.0	-22818.0	28511.0	-5803302.0
16	14	44	36	587	113.0	-38077.0	28158.0	-5802735.0
16	14	44	36	587	114.0	-67021.0	28177.0	-5802156.0
16	14	44	36	588	115.0	-107349.0	28208.0	-5801519.0
16	14	44	36	588	116.0	-147563.0	28771.0	-5802110.0
16	14	44	36	588	118.0	-224754.0	29009.0	-5801659.0
16	14	44	36	589	119.0	-252614.0	28569.0	-5801859.0
16	14	44	36	589	120.0	-267895.0	28506.0	-5803236.0
16	14	44	36	589	121.0	-257888.0	28712.0	-5802761.0
16	14	44	36	589	122.0	-228916.0	29122.0	-5802192.0
16	14	44	36	590	123.0	-179669.0	28925.0	-5802044.0
16	14	44	36	617	124.0	-116829.0	28489.0	-5803335.0
16	14	44	36	618	125.0	-47543.0	28867.0	-5803067.0
16	14	44	36	618	126.0	22816.0	29994.0	-5802476.0
16	14	44	36	618	127.0	87964.0	29621.0	-5801916.0
16	14	44	36	618	128.0	143368.0	29368.0	-5802857.0
16	14	44	36	619	129.0	187928.0	28949.0	-5803380.0
16	14	44	36	619	130.0	218354.0	29011.0	-5802783.0
16	14	44	36	619	131.0	221703.0	28570.0	-5802116.0
16	14	44	36	620	132.0	212536.0	28239.0	-5802565.0
16	14	44	36	620	133.0	187509.0	27878.0	-5803351.0
16	14	44	36	620	134.0	161361.0	26629.0	-5802781.0
16	14	44	36	620	135.0	127869.0	26009.0	-5802133.0
16	14	44	36	621	136.0	100108.0	25903.0	-5801974.0
16	14	44	36	621	137.0	80612.0	25618.0	-5803177.0
16	14	44	36	621	138.0	68274.0	26043.0	-5802899.0
16	14	44	36	621	140.0	43215.0	26170.0	-5802229.0
16	14	44	36	622	141.0	31099.0	25322.0	-5803517.0
16	14	44	36	622	142.0	16528.0	24977.0	-5803197.0
16	14	44	36	622	143.0	1182.0	25008.0	-5802556.0
16	14	44	36	623	144.0	-11578.0	24951.0	-5802081.0
16	14	44	36	623	145.0	-24466.0	25143.0	-5803292.0
16	14	44	36	649	146.0	-34727.0	25634.0	-5803441.0
16	14	44	36	649	147.0	-45469.0	26515.0	-5802799.0
16	14	44	36	650	148.0	-52791.0	27973.0	-5802088.0
16	14	44	36	650	149.0	-56744.0	28822.0	-5802436.0
16	14	44	36	650	150.0	-57626.0	29096.0	-5803379.0
16	14	44	36	651	151.0	-65121.0	28894.0	-5802939.0
16	14	44	36	651	152.0	-71993.0	29326.0	-5802217.0
16	14	44	36	651	153.0	-75336.0	30128.0	-5802298.0
16	14	44	36	652	154.0	-70769.0	31367.0	-5803580.0
16	14	44	36	652	155.0	-56732.0	33311.0	-5803351.0
16	14	44	36	652	156.0	-40259.0	35018.0	-5802639.0
16	14	44	36	653	157.0	-21754.0	37724.0	-5802421.0
16	14	44	36	653	158.0	-3624.0	40281.0	-5803693.0
16	14	44	36	653	159.0	9750.0	42910.0	-5803724.0
16	14	44	36	685	160.0	19443.0	46349.0	-5802999.0
16	14	44	36	686	162.0	20192.0	54761.0	-5803507.0
16	14	44	36	686	163.0	13047.0	59366.0	-5803979.0
16	14	44	36	686	164.0	671.0	63928.0	-5803307.0
16	14	44	36	687	165.0	-15563.0	69699.0	-5802672.0
16	14	44	36	687	166.0	-27556.0	76449.0	-5803162.0
16	14	44	36	687	167.0	-44521.0	83984.0	-5804329.0
16	14	44	36	688	168.0	-56123.0	91666.0	-5803772.0
16	14	44	36	688	169.0	-55061.0	99546.0	-5803124.0
16	14	44	36	688	170.0	-41363.0	108070.0	-5803001.0
16	14	44	36	688	171.0	-13218.0	117229.0	-5804364.0
16	14	44	36	724	172.0	17344.0	125622.0	-5804136.0
16	14	44	36	725	173.0	49142.0	134681.0	-5803498.0
16	14	44	36	725	174.0	74418.0	144309.0	-5803066.0
16	14	44	36	725	175.0	100550.0	154349.0	-5804312.0
16	14	44	36	726	176.0	121305.0	163833.0	-5804567.0
16	14	44	36	726	177.0	141936.0	174127.0	-5803897.0
16	14	44	36	726	178.0	160549.0	184299.0	-5803277.0
16	14	44	36	727	179.0	172648.0	194088.0	-5803017.0
16	14	44	36	727	180.0	182249.0	203553.0	-5803602.0
16	14	44	36	727	181.0	186114.0	213725.0	-5803117.0
16	14	44	36	728	182.0	179244.0	223414.0	-5802835.0
16	14	44	36	728	183.0	167666.0	233419.0	-5804077.0
16	14	44	36	728	185.0	142737.0	250985.0	-5803375.0
16	14	44	36	728	186.0	138084.0	257955.0	-5802889.0
16	14	44	36	729	187.0	132440.0	264769.0	-5803916.0
16	14	44	36	729	188.0	132266.0	271691.0	-5804415.0
16	14	44	36	729	189.0	136478.0	278245.0	-5803732.0
16	14	44	36	729	190.0	133082.0	283501.0	-5803121.0
16	14	44	36	779	191.0	123909.0	288335.0	-5803331.0
16	14	44	36	779	192.0	99138.0	292597.0	-5804661.0
16	14	44	36	780	193.0	60434.0	296117.0	-5804183.0
16	14	44	36	780	194.0	-435.0	298955.0	-5803556.0
16	14	44	36	781	195.0	-52299.0	300761.0	-5802957.0
16	14	44	36	783	196.0	-112606.0	301756.0	-5804039.0
16	14	44	36	783	197.0	-166482.0	302034.0	-5804259.0
16	14	44	36	831	198.0	-199878.0	301679.0	-5803688.0
16	14	44	36	831	199.0	-218601.0	300351.0	-5803022.0
16	14	44	36	831	200.0	-216022.0	298637.0	-5803747.0
16	14	44	36	832	201.0	-200564.0	296048.0	-5804278.0
16	14	44	36	832	202.0	-180101.0	291999.0	-5803711.0
16	14	44	36	832	203.0	-164953.0	288168.0	-5803167.0
16	14	44	36	832	204.0	-165583.0	283407.0	-5804255.0
16	14	44	36	833	205.0	-169234.0	277803.0	-5804682.0
16	14	44	36	833	207.0	-194259.0	266855.0	-5803359.0
16	14	44	36	833	208.0	-198839.0	260106.0	-5803606.0
16	14	44	36	833	209.0	-194760.0	252671.0	-5804736.0
16	14	44	36	834	210.0	-185663.0	245868.0	-5804311.0
16	14	44	36	834	211.0	-172776.0	238920.0	-5803607.0
16	14	44	36	834	230.0	-306083.0	59559.0	-5804633.0
16	14	44	36	835	231.0	-424924.0	49992.0	-5804598.0
16	14	44	36	835	232.0	-399804.0	41084.0	-5803899.0
16	14	44	36	835	233.0	-240200.0	32733.0	-5803631.0
16	14	44	36	835	234.0	-24840.0	24293.0	-5804861.0
16	14	44	36	836	235.0	122328.0	16261.0	-5805053.0
16	14	44	36	836	236.0	150754.0	8394.0	-5804357.0
16	14	44	36	836	237.0	173510.0	409.0	-5804039.0
16	14	44	36	837	238.0	198233.0	-6356.0	-5805098.0
16	14	44	36	837	239.0	169663.0	-13828.0	-5805202.0
16	14	44	36	837	240.0	101968.0	-21869.0	-5804494.0
16	14	44	36	838	241.0	6358.0	-28743.0	-5803968.0
16	14	44	36	838	242.0	-80314.0	-34598.0	-5804508.0
16	14	44	36	838	243.0	-125929.0	-39362.0	-5804982.0
16	14	44	36	838	244.0	-124998.0	-45119.0	-5804303.0
16	14	44	36	839	245.0	-80653.0	-51713.0	-5803692.0
16	14	44	36	839	246.0	-21588.0	-56661.0	-5803913.0
16	14	44	36	839	247.0	46873.0	-60679.0	-5805184.0
16	14	44	36	840	248.0	133329.0	-65134.0	-5804739.0
16	14	44	36	840	249.0	222508.0	-69275.0	-5804115.0
16	14	44	36	840	250.0	284765.0	-72872.0	-5804013.0
16	14	44	36	841	252.0	316561.0	-80267.0	-5805043.0
16	14	44	36	841	253.0	286358.0	-83473.0	-5804396.0
16	14	44	36	842	254.0	213099.0	-87498.0	-5804260.0
16	14	44	36	842	255.0	104728.0	-90399.0	-5805561.0
16	14	44	36	842	0.0	-17156.0	-92920.0	-5805326.0
16	14	44	36	843	1.0	-131921.0	-95227.0	-5804668.0
16	14	44	36	843	2.0	-226248.0	-97001.0	-5804043.0
16	14	44	36	876	3.0	-299668.0	-98385.0	-5804078.0
16	14	44	36	876	4.0	-322888.0	-100342.0	-5804746.0
16	14	44	36	877	5.0	-257472.0	-102010.0	-5804278.0
16	14	44	36	877	6.0	-155144.0	-104361.0	-5803824.0
16	14	44	36	877	7.0	-51079.0	-106092.0	-5804807.0
16	14	44	36	878	8.0	34489.0	-106889.0	-5805047.0
16	14	44	36	878	9.0	84930.0	-107998.0	-5804378.0
16	14	44	36	878	10.0	97212.0	-109809.0	-5803861.0
16	14	44	36	878	11.0	80666.0	-110257.0	-5804931.0
16	14	44	36	879	12.0	57269.0	-111054.0	-5805656.0
16	14	44	36	879	13.0	40616.0	-112253.0	-5805015.0
16	14	44	36	879	14.0	37561.0	-113499.0	-5804382.0
16	14	44	36	880	15.0	42333.0	-115177.0	-5804429.0
16	14	44	36	880	16.0	51534.0	-116678.0	-5804891.0
16	14	44	36	880	17.0	58258.0	-117925.0	-5804319.0
16	14	44	36	881	19.0	64753.0	-119522.0	-5804800.0
16	14	44	36	881	20.0	65210.0	-120905.0	-5805285.0
16	14	44	36	881	21.0	62926.0	-122390.0	-5804607.0
16	14	44	36	882	22.0	57624.0	-123646.0	-5804051.0
16	14	44	36	882	23.0	50618.0	-125372.0	-5804731.0
16	14	44	36	882	24.0	38498.0	-127198.0	-5805624.0
16	14	44	36	922	25.0	26501.0	-129372.0	-5804998.0
16	14	44	36	922	26.0	16853.0	-130924.0	-5804422.0
16	14	44	36	923	27.0	7887.0	-131393.0	-5804942.0
16	14	44	36	923	28.0	10067.0	-132745.0	-5805881.0
16	14	44	36	923	29.0	16609.0	-134660.0	-5805276.0
16	14	44	36	924	30.0	12557.0	-136781.0	-5804681.0
16	14	44	36	924	31.0	8789.0	-138027.0	-5804507.0
16	14	44	36	924	32.0	22225.0	-138796.0	-5805841.0
16	14	44	36	925	33.0	45483.0	-140255.0	-5805556.0
16	14	44	36	925	34.0	79727.0	-140886.0	-5804950.0
16	14	44	36	968	35.0	123526.0	-141449.0	-5804421.0
16	14	44	36	969	36.0	177342.0	-143009.0	-5805633.0
16	14	44	36	969	37.0	234282.0	-143682.0	-5805784.0
16	14	44	36	969	38.0	286569.0	-144471.0	-5805187.0
16	14	44	36	970	39.0	329332.0	-145296.0	-5804504.0
16	14	44	36	970	41.0	363429.0	-147042.0	-5805824.0
16	14	44	36	970	42.0	353423.0	-147203.0	-5805359.0
16	14	44	36	971	43.0	341642.0	-147228.0	-5804693.0
16	14	44	36	971	44.0	325087.0	-147184.0	-5805249.0
16	14	44	36	971	45.0	310231.0	-147216.0	-5806338.0
16	14	44	36	972	46.0	300040.0	-146814.0	-5805861.0
16	14	44	36	972	47.0	297087.0	-145911.0	-5805142.0
16	14	44	36	972	48.0	293554.0	-145615.0	-5805104.0
16	14	44	36	972	49.0	289304.0	-144578.0	-5806252.0
16	14	44	36	973	50.0	282299.0	-143694.0	-5805969.0
16	14	44	36	973	51.0	265361.0	-143472.0	-5805273.0
16	14	44	36	973	52.0	249096.0	-142964.0	-5804694.0
16	14	44	36	973	53.0	230554.0	-141844.0	-5805617.0
16	14	44	36	974	54.0	205205.0	-141076.0	-5806195.0
16	14	44	36	974	55.0	179116.0	-140534.0	-5805584.0
16	14	44	36	975	56.0	145804.0	-139534.0	-5805003.0
16	14	44	36	975	57.0	98026.0	-138044.0	-5806036.0
16	14	44	36	975	58.0	32388.0	-136763.0	-5806634.0
16	14	44	36	975	59.0	-53880.0	-135466.0	-5806004.0
16	14	44	36	976	60.0	-151188.0	-133402.0	-5805319.0
16	14	44	36	976	61.0	-251397.0	-131905.0	-5805771.0
16	14	44	36	976	62.0	-345400.0	-130817.0	-5806704.0
16	14	44	36	976	64.0	-474715.0	-125959.0	-5805492.0
16	14	44	36	977	65.0	-503080.0	-124466.0	-5805554.0
16	14	44	36	977	66.0	-513279.0	-122547.0	-5806856.0
16	14	44	36	977	67.0	-507251.0	-120384.0	-5806614.0
16	14	44	36	978	68.0	-491668.0	-117969.0	-5805877.0
16	14	44	36	978	69.0	-452839.0	-115397.0	-5805328.0
16	14	44	37	17	70.0	-404440.0	-112769.0	-5805958.0
16	14	44	37	17	71.0	-350036.0	-110383.0	-5806831.0
16	14	44	37	18	72.0	-292261.0	-107213.0	-5806200.0
16	14	44	37	18	73.0	-239827.0	-104944.0	-5805587.0
16	14	44	37	18	74.0	-189692.0	-103424.0	-5805777.0
16	14	44	37	18	75.0	-139331.0	-101027.0	-5806746.0
16	14	44	37	19	76.0	-90819.0	-99245.0	-5806177.0
16	14	44	37	19	77.0	-46604.0	-98084.0	-5805582.0
16	14	44	37	19	78.0	-12081.0	-96213.0	-5805852.0
16	14	44	37	19	79.0	18294.0	-94176.0	-5806957.0
16	14	44	37	20	80.0	46767.0	-92331.0	-5806435.0
16	14	44	37	20	81.0	69913.0	-90056.0	-5805826.0
16	14	44	37	20	82.0	91830.0	-88457.0	-5805604.0
16	14	44	37	20	83.0	109384.0	-86416.0	-5806959.0
16	14	44	37	21	84.0	119916.0	-84742.0	-5806832.0
16	14	44	37	21	86.0	118083.0	-81659.0	-5805571.0
16	14	44	37	21	87.0	112450.0	-80128.0	-5806164.0
16	14	44	37	21	88.0	101663.0	-79119.0	-5807172.0
16	14	44	37	22	89.0	95164.0	-77345.0	-5806602.0
16	14	44	37	22	90.0	93929.0	-75402.0	-5805967.0
16	14	44	37	22	91.0	105524.0	-73713.0	-5806209.0
16	14	44	37	22	92.0	118466.0	-72154.0	-5807187.0
16	14	44	37	60	93.0	131076.0	-70926.0	-5806674.0
16	14	44	37	61	94.0	133151.0	-69541.0	-5806043.0
16	14	44	37	61	95.0	121524.0	-67546.0	-5805977.0
16	14	44	37	61	96.0	105368.0	-66836.0	-5806723.0
16	14	44	37	62	97.0	85854.0	-66093.0	-5806256.0
16	14	44	37	62	98.0	60578.0	-66211.0	-5805629.0
16	14	44	37	62	99.0	36668.0	-66255.0	-5805625.0
16	14	44	37	62	100.0	11841.0	-65977.0	-5806862.0
16	14	44	37	63	101.0	-22577.0	-65333.0	-5806467.0
16	14	44	37	63	102.0	-57956.0	-65592.0	-5805839.0
16	14	44	37	63	103.0	-86872.0	-65287.0	-5805656.0
16	14	44	37	64	104.0	-103503.0	-65041.0	-5806417.0
16	14	44	37	64	105.0	-109864.0	-64707.0	-5805938.0
16	14	44	37	64	106.0	-107870.0	-64547.0	-5805550.0
16	14	44	37	65	107.0	-97881.0	-64899.0	-5806743.0
16	14	44	37	65	109.0	-87074.0	-64742.0	-5806296.0
16	14	44	37	65	110.0	-96274.0	-64773.0	-5805699.0
16	14	44	37	65	111.0	-112654.0	-64725.0	-5805708.0
16	14	44	37	65	112.0	-132230.0	-64300.0	-5806351.0
16	14	44	37	66	113.0	-147464.0	-64597.0	-5805855.0
16	14	44	37	66	114.0	-151491.0	-65591.0	-5805358.0
16	14	44	37	105	115.0	-146187.0	-65891.0	-5806321.0
16	14	44	37	105	116.0	-129005.0	-65307.0	-5806774.0
16	14	44	37	105	117.0	-110196.0	-65139.0	-5806098.0
16	14	44	37	106	118.0	-84224.0	-65914.0	-5805539.0
16	14	44	37	106	119.0	-52862.0	-65924.0	-5806154.0
16	14	44	37	106	120.0	-21197.0	-66411.0	-5807237.0
16	14	44	37	107	121.0	4617.0	-67021.0	-5806645.0
16	14	44	37	107	122.0	23871.0	-67027.0	-5806067.0
16	14	44	37	107	123.0	48051.0	-67361.0	-5806404.0
16	14	44	37	107	124.0	69363.0	-67508.0	-5807659.0
16	14	44	37	108	125.0	88593.0	-67591.0	-5807112.0
16	14	44	37	108	126.0	103001.0	-67745.0	-5806513.0
16	14	44	37	108	127.0	110330.0	-67949.0	-5806166.0
16	14	44	37	109	128.0	104068.0	-67809.0	-5807540.0
16	14	44	37	109	129.0	95005.0	-68573.0	-5807484.0
16	14	44	37	109	131.0	76167.0	-68062.0	-5806141.0
16	14	44	37	109	132.0	66603.0	-67867.0	-5806831.0
16	14	44	37	150	133.0	63264.0	-68525.0	-5807528.0
16	14	44	37	150	134.0	63360.0	-68709.0	-5806984.0
16	14	44	37	151	135.0	63824.0	-68270.0	-5806319.0
16	14	44	37	151	136.0	65743.0	-67789.0	-5806685.0
16	14	44	37	152	137.0	64029.0	-67512.0	-5807779.0
16	14	44	37	152	138.0	52784.0	-66771.0	-5807306.0
16	14	44	37	152	139.0	40539.0	-65901.0	-5806608.0
16	14	44	37	152	140.0	26232.0	-64962.0	-5806499.0
16	14	44	37	153	141.0	9972.0	-64827.0	-5807822.0
16	14	44	37	153	142.0	-8324.0	-64621.0	-5807623.0
16	14	44	37	153	143.0	-26847.0	-64244.0	-5806929.0
16	14	44	37	153	144.0	-47014.0	-63364.0	-5806521.0
16	14	44	37	154	145.0	-65946.0	-62791.0	-5807565.0
16	14	44	37	154	146.0	-82694.0	-63199.0	-5807577.0
16	14	44	37	154	147.0	-93063.0	-62331.0	-5806894.0
16	14	44	37	154	148.0	-91444.0	-61425.0	-5806269.0
16	14	44	37	155	149.0	-78206.0	-61071.0	-5807046.0
16	14	44	37	196	150.0	-52762.0	-60138.0	-5807619.0
16	14	44	37	197	151.0	-20876.0	-59541.0	-5807036.0
16	14	44	37	197	152.0	15826.0	-58856.0	-5806347.0
16	14	44	37	198	154.0	64834.0	-57949.0	-5807894.0
16	14	44	37	198	155.0	78126.0	-57987.0	-5807446.0
16	14	44	37	198	156.0	91236.0	-56549.0	-5806741.0
16	14	44	37	198	157.0	100603.0	-55252.0	-5806985.0
16	14	44	37	199	158.0	110389.0	-53750.0	-5808122.0
16	14	44	37	199	159.0	117508.0	-52441.0	-5807772.0
16	14	44	37	199	160.0	114906.0	-51321.0	-5807033.0
16	14	44	37	200	161.0	105925.0	-50176.0	-5806704.0
16	14	44	37	200	162.0	98545.0	-48549.0	-5807811.0
16	14	44	37	200	163.0	102616.0	-47359.0	-5807915.0
16	14	44	37	200	164.0	113513.0	-45694.0	-5807173.0
16	14	44	37	201	165.0	121314.0	-44014.0	-5806616.0
16	14	44	37	201	176.0	73296.0	-28675.0	-5807987.0
16	14	44	37	201	177.0	62156.0	-27474.0	-5807317.0
16	14	44	37	202	178.0	50377.0	-26596.0	-5806639.0
16	14	44	37	202	179.0	30731.0	-25454.0	-5807117.0
16	14	44	37	202	180.0	5031.0	-23901.0	-5807736.0
16	14	44	37	202	181.0	-12926.0	-21899.0	-5807126.0
16	14	44	37	239	182.0	-23648.0	-20194.0	-5806508.0
16	14	44	37	286	183.0	-28308.0	-18514.0	-5806593.0
16	14	44	37	286	184.0	-30608.0	-16837.0	-5807359.0
16	14	44	37	286	185.0	-33444.0	-14952.0	-5806836.0
16	14	44	37	287	186.0	-38100.0	-13611.0	-5806544.0
16	14	44	37	287	187.0	-43628.0	-12424.0	-5807849.0
16	14	44	37	287	188.0	-47621.0	-11195.0	-5807814.0
16	14	44	37	288	189.0	-41847.0	-9676.0	-5807155.0
16	14	44	37	288	190.0	-30163.0	-8694.0	-5806579.0
16	14	44	37	288	191.0	3966.0	-7504.0	-5807500.0
16	14	44	37	288	192.0	44856.0	-6844.0	-5808327.0
16	14	44	37	289	193.0	80938.0	-5559.0	-5807722.0
16	14	44	37	289	194.0	93776.0	-4324.0	-5807081.0
16	14	44	37	289	195.0	80308.0	-3261.0	-5806892.0
16	14	44	37	290	196.0	49896.0	-2119.0	-5807933.0
16	14	44	37	290	198.0	-15751.0	1183.0	-5806898.0
16	14	44	37	290	199.0	-29477.0	2245.0	-5806719.0
16	14	44	37	290	221.0	-30307.0	21577.0	-5807866.0
16	14	44	37	291	222.0	-35848.0	21597.0	-5808128.0
16	14	44	37	291	223.0	-37836.0	21771.0	-5807490.0
16	14	44	37	291	224.0	-36799.0	23120.0	-5806926.0
16	14	44	37	291	225.0	-42889.0	24421.0	-5807817.0
16	14	44	37	332	226.0	-58879.0	25205.0	-5808324.0
16	14	44	37	333	227.0	-78163.0	25700.0	-5807679.0
16	14	44	37	333	228.0	-93587.0	26056.0	-5806947.0
16	14	44	37	333	229.0	-101607.0	27230.0	-5807201.0
16	14	44	37	334	230.0	-101612.0	28697.0	-5808334.0
16	14	44	37	334	231.0	-87157.0	28911.0	-5807952.0
16	14	44	37	334	232.0	-51994.0	29411.0	-5807229.0
16	14	44	37	335	233.0	-2872.0	29829.0	-5807030.0
16	14	44	37	335	234.0	54049.0	30429.0	-5808027.0
16	14	44	37	335	235.0	105118.0	30376.0	-5807891.0
16	14	44	37	336	236.0	152972.0	29898.0	-5807179.0
16	14	44	37	336	237.0	181532.0	30499.0	-5807106.0
16	14	44	37	336	238.0	194780.0	30721.0	-5808354.0
16	14	44	37	336	239.0	197783.0	31691.0	-5808203.0
16	14	44	37	337	240.0	194351.0	32613.0	-5807498.0
16	14	44	37	337	241.0	183166.0	32733.0	-5807076.0
16	14	44	37	337	242.0	168886.0	32969.0	-5808065.0
16	14	44	37	338	243.0	145330.0	33340.0	-5808399.0
16	14	44	37	338	244.0	118010.0	33539.0	-5807620.0
16	14	44	37	338	245.0	86107.0	33302.0	-5807043.0
16	14	44	37	338	246.0	53608.0	33069.0	-5807583.0
16	14	44	37	339	247.0	19111.0	33519.0	-5808572.0
16	14	44	37	339	248.0	-12025.0	33774.0	-5807944.0
16	14	44	37	339	249.0	-31667.0	34198.0	-5807304.0
16	14	44	37	375	250.0	-37141.0	34200.0	-5807154.0
16	14	44	37	376	251.0	-23897.0	33873.0	-5808464.0
16	14	44	37	376	252.0	469.0	34819.0	-5808204.0
16	14	44	37	376	253.0	42003.0	34840.0	-5807605.0
16	14	44	37	376	254.0	96836.0	34640.0	-5807554.0
16	14	44	37	377	255.0	165788.0	34274.0	-5808837.0
16	14	44	37	377	0.0	240774.0	34318.0	-5808510.0
16	14	44	37	377	1.0	306153.0	34283.0	-5807883.0
16	14	44	37	377	2.0	352632.0	33938.0	-5807271.0
16	14	44	37	378	3.0	377826.0	34002.0	-5807672.0
16	14	44	37	378	4.0	382054.0	33864.0	-5808451.0
16	14	44	37	378	5.0	367966.0	33719.0	-5807849.0
16	14	44	37	379	6.0	344428.0	33716.0	-5807229.0
16	14	44	37	379	7.0	314064.0	33357.0	-5807161.0
16	14	44	37	379	8.0	298854.0	32944.0	-5807886.0
16	14	44	37	379	10.0	285789.0	33049.0	-5807168.0
16	14	44	37	380	11.0	196718.0	32248.0	-5808552.0
16	14	44	37	380	12.0	33338.0	31979.0	-5808540.0
16	14	44	37	380	13.0	-127459.0	31844.0	-5807889.0
16	14	44	37	381	14.0	-230792.0	31318.0	-5807247.0
16	14	44	37	381	15.0	-280383.0	31585.0	-5807599.0
16	14	44	37	419	16.0	-255491.0	32021.0	-5808033.0
16	14	44	37	419	17.0	-188582.0	32045.0	-5807483.0
16	14	44	37	420	18.0	-139562.0	32600.0	-5807284.0
16	14	44	37	420	19.0	-116363.0	32318.0	-5808410.0
16	14	44	37	420	20.0	-85620.0	31847.0	-5808152.0
16	14	44	37	420	21.0	-50889.0	31780.0	-5807460.0
16	14	44	37	420	22.0	-36925.0	31687.0	-5806844.0
16	14	44	37	421	23.0	-39999.0	31393.0	-5807066.0
16	14	44	37	421	24.0	-77157.0	31320.0	-5807784.0
16	14	44	37	421	25.0	-108219.0	31249.0	-5807269.0
16	14	44	37	421	26.0	-109689.0	31589.0	-5806959.0
16	14	44	37	422	27.0	-110817.0	31933.0	-5808206.0
16	14	44	37	422	28.0	-124674.0	31763.0	-5808126.0
16	14	44	37	422	29.0	-137650.0	31416.0	-5807449.0
16	14	44	37	423	30.0	-111096.0	30638.0	-5806872.0
16	14	44	37	423	32.0	-16240.0	31246.0	-5808264.0
16	14	44	37	423	33.0	-36816.0	30876.0	-5807639.0
16	14	44	37	423	34.0	-99642.0	29673.0	-5806976.0
16	14	44	37	424	35.0	-158395.0	29774.0	-5806941.0
16	14	44	37	424	36.0	-183756.0	29732.0	-5808107.0
16	14	44	37	425	37.0	-175057.0	29626.0	-5807689.0
16	14	44	37	425	38.0	-141324.0	29418.0	-5807089.0
16	14	44	37	498	39.0	-104188.0	29491.0	-5806850.0
16	14	44	37	523	40.0	-57615.0	29697.0	-5807710.0
16	14	44	37	524	41.0	-21184.0	30631.0	-5807337.0
16	14	44	37	525	42.0	7452.0	30811.0	-5806891.0
16	14	44	37	525	43.0	20608.0	30683.0	-5808011.0
16	14	44	37	526	44.0	15291.0	29936.0	-5808401.0
16	14	44	37	526	45.0	-8918.0	30007.0	-5807741.0
16	14	44	37	527	46.0	-49401.0	30004.0	-5807109.0
16	14	44	37	527	47.0	-97276.0	29531.0	-5806922.0
16	14	44	37	528	48.0	-135731.0	29700.0	-5807633.0
16	14	44	37	529	49.0	-157602.0	29669.0	-5807181.0
16	14	44	37	529	50.0	-155555.0	29273.0	-5806947.0
16	14	44	37	530	51.0	-144852.0	28946.0	-5808048.0
16	14	44	37	530	52.0	-121095.0	29530.0	-5807906.0
16	14	44	37	531	53.0	-96933.0	29927.0	-5807180.0
16	14	44	37	531	77.0	179651.0	27207.0	-5807822.0
16	14	44	37	532	78.0	162834.0	26664.0	-5807366.0
16	14	44	37	532	79.0	137522.0	25682.0	-5806722.0
16	14	44	37	533	80.0	114460.0	25302.0	-5806559.0
16	14	44	37	533	81.0	99485.0	25377.0	-5807715.0
16	14	44	37	534	82.0	97666.0	25287.0	-5807458.0
16	14	44	37	535	83.0	108456.0	25431.0	-5806802.0
16	14	44	37	579	84.0	130466.0	25505.0	-5806308.0
16	14	44	37	579	85.0	152174.0	26301.0	-5807658.0
16	14	44	37	580	86.0	166826.0	27191.0	-5807868.0
16	14	44	37	580	87.0	168758.0	27152.0	-5807270.0
16	14	44	37	580	88.0	148421.0	27056.0	-5806572.0
16	14	44	37	581	89.0	120814.0	27409.0	-5807279.0
16	14	44	37	581	90.0	85160.0	27949.0	-5807979.0
16	14	44	37	581	91.0	37536.0	29926.0	-5807427.0
16	14	44	37	582	92.0	-16759.0	31814.0	-5806736.0
16	14	44	37	582	93.0	-69166.0	33124.0	-5807166.0
16	14	44	37	582	94.0	-114461.0	35017.0	-5807983.0
16	14	44	37	583	95.0	-145828.0	37685.0	-5807488.0
16	14	44	37	583	96.0	-162271.0	40091.0	-5806754.0
16	14	44	37	583	97.0	-166281.0	42750.0	-5806673.0
16	14	44	37	584	98.0	-165875.0	46043.0	-5807776.0
16	14	44	37	584	100.0	-161925.0	54683.0	-5806816.0
16	14	44	37	584	101.0	-149940.0	58757.0	-5806366.0
16	14	44	37	585	102.0	-134817.0	63759.0	-5807354.0
16	14	44	37	585	103.0	-113489.0	69587.0	-5807666.0
16	14	44	37	619	104.0	-89724.0	75935.0	-5806962.0
16	14	44	37	619	105.0	-67727.0	83247.0	-5806362.0
16	14	44	37	620	106.0	-47941.0	90899.0	-5807037.0
16	14	44	37	620	107.0	-23145.0	99584.0	-5807871.0
16	14	44	37	620	108.0	11808.0	108055.0	-5807236.0
16	14	44	37	621	109.0	53477.0	116736.0	-5806632.0
16	14	44	37	621	110.0	93810.0	125561.0	-5807135.0
16	14	44	37	621	111.0	128539.0	135221.0	-5808256.0
16	14	44	37	621	112.0	152079.0	144772.0	-5807721.0
16	14	44	37	622	113.0	159882.0	154722.0	-5807037.0
16	14	44	37	622	114.0	153738.0	165167.0	-5806924.0
16	14	44	37	622	115.0	129093.0	175222.0	-5808189.0
16	14	44	37	622	116.0	89219.0	184919.0	-5807978.0
16	14	44	37	623	117.0	51543.0	195141.0	-5807246.0
16	14	44	37	623	118.0	28090.0	204698.0	-5806709.0
16	14	44	37	623	122.0	4923.0	241478.0	-5806939.0
16	14	44	37	623	123.0	5638.0	249035.0	-5807741.0
16	14	44	37	624	124.0	2732.0	256905.0	-5808511.0
16	14	44	37	624	125.0	362.0	263956.0	-5807814.0
16	14	44	37	624	126.0	-582.0	270504.0	-5807188.0
16	14	44	37	625	127.0	-64.0	276575.0	-5807301.0
16	14	44	37	625	128.0	-5363.0	282084.0	-5808466.0
16	14	44	37	660	129.0	-16575.0	287211.0	-5807936.0
16	14	44	37	660	130.0	-32372.0	291915.0	-5807307.0
16	14	44	37	660	131.0	-50304.0	296479.0	-5806677.0
16	14	44	37	661	132.0	-67889.0	299111.0	-5807275.0
16	14	44	37	661	133.0	-74912.0	301516.0	-5807281.0
16	14	44	37	661	134.0	-79602.0	303601.0	-5806686.0
16	14	44	37	662	135.0	-122411.0	304451.0	-5806802.0
16	14	44	37	662	136.0	-174601.0	303666.0	-5808002.0
16	14	44	37	662	137.0	-210684.0	302159.0	-5807500.0
16	14	44	37	662	138.0	-236642.0	300593.0	-5806869.0
16	14	44	37	663	139.0	-246867.0	298716.0	-5806617.0
16	14	44	37	663	140.0	-228017.0	295670.0	-5808004.0
16	14	44	37	663	141.0	-182530.0	292609.0	-5807847.0
16	14	44	37	664	142.0	-111137.0	288439.0	-5807244.0
16	14	44	37	664	143.0	-41388.0	283679.0	-5806681.0
16	14	44	37	664	145.0	21116.0	273058.0	-5807315.0
16	14	44	37	664	146.0	8996.0	265584.0	-5806717.0
16	14	44	37	665	147.0	-27593.0	258523.0	-5806575.0
16	14	44	37	665	148.0	-67344.0	250963.0	-5807808.0
16	14	44	37	665	149.0	-108794.0	243309.0	-5807437.0
16	14	44	37	666	150.0	-126577.0	235673.0	-5806800.0
16	14	44	37	702	151.0	-119527.0	227461.0	-5806615.0
16	14	44	37	702	152.0	-94442.0	219380.0	-5807831.0
16	14	44	37	703	153.0	-76542.0	210907.0	-5807564.0
16	14	44	37	703	154.0	-53537.0	201526.0	-5806979.0
16	14	44	37	703	155.0	-20176.0	191733.0	-5806394.0
16	14	44	37	704	156.0	-8904.0	181913.0	-5806956.0
16	14	44	37	704	157.0	-6214.0	172553.0	-5807096.0
16	14	44	37	704	158.0	17730.0	163055.0	-5806567.0
16	14	44	37	705	159.0	62498.0	153401.0	-5806962.0
16	14	44	37	705	160.0	96785.0	143523.0	-5808019.0
16	14	44	37	705	161.0	118729.0	133678.0	-5807468.0
16	14	44	37	706	162.0	130787.0	123498.0	-5806876.0
16	14	44	37	706	163.0	125266.0	113720.0	-5806316.0
16	14	44	37	706	164.0	95899.0	103812.0	-5807217.0
16	14	44	37	706	165.0	34703.0	94130.0	-5807391.0
16	14	44	37	707	167.0	-224269.0	74608.0	-5806090.0
16	14	44	37	707	168.0	-404106.0	65129.0	-5806410.0
16	14	44	37	707	169.0	-572846.0	55843.0	-5806836.0
16	14	44	37	708	170.0	-636691.0	46538.0	-5806288.0
16	14	44	37	708	171.0	-583951.0	37561.0	-5806653.0
16	14	44	37	708	172.0	-422672.0	28643.0	-5807892.0
16	14	44	37	708	173.0	-182957.0	20534.0	-5807392.0
16	14	44	37	745	174.0	-120416.0	12481.0	-5806801.0
16	14	44	37	746	175.0	-249437.0	4916.0	-5806199.0
16	14	44	37	746	176.0	-452150.0	-2209.0	-5806768.0
16	14	44	37	746	177.0	-668371.0	-9959.0	-5807043.0
16	14	44	37	747	178.0	-753184.0	-17449.0	-5806481.0
16	14	44	37	747	179.0	-670539.0	-23935.0	-5806466.0
16	14	44	37	747	180.0	-506352.0	-30270.0	-5807613.0
16	14	44	37	747	181.0	-268350.0	-36691.0	-5807241.0
16	14	44	37	748	182.0	7586.0	-43112.0	-5806654.0
16	14	44	37	748	183.0	290537.0	-48455.0	-5806184.0
16	14	44	37	748	184.0	574821.0	-53817.0	-5807330.0
16	14	44	37	749	185.0	844401.0	-59398.0	-5807852.0
16	14	44	37	749	186.0	1076753.0	-64156.0	-5807241.0
16	14	44	37	749	187.0	1248696.0	-68304.0	-5806661.0
16	14	44	37	749	188.0	1370474.0	-72516.0	-5807159.0
16	14	44	37	750	190.0	1465362.0	-80699.0	-5806941.0
16	14	44	37	750	191.0	1424195.0	-85169.0	-5806659.0
16	14	44	37	750	192.0	1286346.0	-89165.0	-5808089.0
16	14	44	37	751	193.0	1024323.0	-92276.0	-5808059.0
16	14	44	37	751	194.0	657890.0	-94426.0	-5807379.0
16	14	44	37	751	195.0	235198.0	-96987.0	-5806680.0
16	14	44	37	787	196.0	-165051.0	-99575.0	-5806933.0
16	14	44	37	787	197.0	-495941.0	-101606.0	-5807483.0
16	14	44	37	787	198.0	-738014.0	-102710.0	-5806886.0
16	14	44	37	788	199.0	-894046.0	-104586.0	-5806462.0
16	14	44	37	788	200.0	-973999.0	-107019.0	-5807624.0
16	14	44	37	788	201.0	-1005811.0	-108697.0	-5807653.0
16	14	44	37	788	202.0	-996533.0	-109896.0	-5806992.0
16	14	44	37	789	203.0	-968194.0	-110849.0	-5806381.0
16	14	44	37	789	204.0	-940480.0	-112251.0	-5806699.0
16	14	44	37	789	205.0	-916974.0	-114204.0	-5807096.0
16	14	44	37	790	206.0	-924918.0	-115586.0	-5806517.0
16	14	44	37	790	207.0	-951519.0	-115768.0	-5806443.0
16	14	44	37	790	208.0	-940511.0	-116919.0	-5807709.0
16	14	44	37	790	209.0	-857582.0	-118037.0	-5807372.0
16	14	44	37	791	210.0	-773802.0	-119221.0	-5806736.0
16	14	44	37	791	212.0	-622614.0	-121444.0	-5807824.0
16	14	44	37	791	213.0	-504969.0	-122387.0	-5807877.0
16	14	44	37	792	214.0	-398200.0	-123337.0	-5807211.0
16	14	44	37	792	215.0	-311314.0	-124383.0	-5806569.0
16	14	44	37	793	216.0	-251898.0	-125415.0	-5806537.0
16	14	44	37	793	217.0	-215490.0	-126314.0	-5807366.0
16	14	44	37	828	218.0	-183899.0	-127114.0	-5806931.0
16	14	44	37	829	219.0	-152767.0	-128314.0	-5806768.0
16	14	44	37	829	220.0	-117532.0	-128730.0	-5808078.0
16	14	44	37	829	221.0	-75116.0	-130220.0	-5807916.0
16	14	44	37	829	222.0	-31101.0	-131574.0	-5807241.0
16	14	44	37	830	223.0	13258.0	-132955.0	-5806622.0
16	14	44	37	830	224.0	41700.0	-134901.0	-5806785.0
16	14	44	37	830	225.0	60647.0	-136007.0	-5807405.0
16	14	44	37	830	226.0	43782.0	-137224.0	-5806871.0
16	14	44	37	830	227.0	4478.0	-138852.0	-5806511.0
16	14	44	37	831	228.0	-42205.0	-139919.0	-5807877.0
16	14	44	37	831	229.0	-65826.0	-141172.0	-5808025.0
16	14	44	37	831	230.0	-56062.0	-142234.0	-5807334.0
16	14	44	37	831	231.0	-14429.0	-143458.0	-5806701.0
16	14	44	37	832	232.0	38975.0	-143776.0	-5806580.0
16	14	44	37	832	234.0	36320.0	-143975.0	-5807056.0
16	14	44	37	832	235.0	13994.0	-143556.0	-5806754.0
16	14	44	37	832	236.0	15853.0	-144398.0	-5807804.0
16	14	44	37	833	237.0	57618.0	-143913.0	-5807721.0
16	14	44	37	833	238.0	112791.0	-144056.0	-5807064.0
16	14	44	37	833	239.0	-21389.0	-143447.0	-5806776.0
16	14	44	37	833	240.0	-226257.0	-143538.0	-5807963.0
16	14	44	37	872	241.0	-358264.0	-143402.0	-5807945.0
16	14	44	37	873	242.0	-407987.0	-142517.0	-5807256.0
16	14	44	37	873	243.0	-401530.0	-140976.0	-5806630.0
16	14	44	37	873	244.0	-390092.0	-140299.0	-5806336.0
16	14	44	37	873	245.0	-365785.0	-139754.0	-5807331.0
16	14	44	37	874	246.0	-305858.0	-139004.0	-5807060.0
16	14	44	37	874	247.0	-174422.0	-138254.0	-5806531.0
16	14	44	37	920	248.0	-27892.0	-137836.0	-5807317.0
16	14	44	37	921	249.0	132346.0	-136885.0	-5807877.0
16	14	44	37	921	250.0	352391.0	-135474.0	-5807222.0
16	14	44	37	921	251.0	568467.0	-133957.0	-5806733.0
16	14	44	37	921	252.0	752222.0	-132287.0	-5807552.0
16	14	44	37	921	253.0	867720.0	-130733.0	-5808144.0
16	14	44	37	921	254.0	903128.0	-129261.0	-5807484.0
16	14	44	37	922	255.0	895365.0	-127045.0	-5806899.0
16	14	44	37	922	1.0	886453.0	-124030.0	-5808423.0
16	14	44	37	922	2.0	708763.0	-122346.0	-5807914.0
16	14	44	37	922	3.0	562373.0	-121419.0	-5807284.0
16	14	44	37	922	4.0	515876.0	-119595.0	-5806672.0
16	14	44	37	923	5.0	545856.0	-117268.0	-5807434.0
16	14	44	37	923	6.0	567279.0	-115454.0	-5807404.0
16	14	44	37	923	7.0	569341.0	-113394.0	-5806814.0
16	14	44	37	923	23.0	-867418.0	-84223.0	-5806572.0
16	14	44	37	923	24.0	-768763.0	-82976.0	-5806901.0
16	14	44	37	924	25.0	-599536.0	-81815.0	-5807868.0
16	14	44	37	924	26.0	-444779.0	-80186.0	-5807300.0
16	14	44	37	924	27.0	-376011.0	-78212.0	-5806721.0
16	14	44	37	924	28.0	-335043.0	-76665.0	-5806870.0
16	14	44	37	924	29.0	-261431.0	-74802.0	-5808046.0
16	14	44	37	972	30.0	-115856.0	-73582.0	-5807545.0
16	14	44	37	972	31.0	81800.0	-71929.0	-5806978.0
16	14	44	37	972	32.0	291059.0	-69809.0	-5806551.0
16	14	44	37	973	33.0	536481.0	-69600.0	-5807727.0
16	14	44	37	973	34.0	800664.0	-69139.0	-5807763.0
16	14	44	37	973	35.0	1023136.0	-68046.0	-5807161.0
16	14	44	37	973	36.0	1199719.0	-66966.0	-5806641.0
16	14	44	37	974	37.0	1313737.0	-66109.0	-5807367.0
16	14	44	37	974	38.0	1339261.0	-65081.0	-5807195.0
16	14	44	37	974	39.0	1308585.0	-64560.0	-5806688.0
16	14	44	37	974	40.0	1228457.0	-63974.0	-5807372.0
16	14	44	37	975	41.0	1142829.0	-64067.0	-5808289.0
16	14	44	37	975	42.0	1035598.0	-64027.0	-5807617.0
16	14	44	37	975	43.0	938445.0	-64099.0	-5807020.0
16	14	44	37	975	44.0	827631.0	-64776.0	-5807466.0
16	14	44	37	976	46.0	434549.0	-64995.0	-5807632.0
16	14	44	37	976	47.0	269034.0	-65805.0	-5807012.0
16	14	44	37	976	48.0	115193.0	-65636.0	-5807120.0
16	14	44	37	976	49.0	53714.0	-65396.0	-5808265.0
16	14	44	37	977	50.0	18673.0	-65593.0	-5807731.0
16	14	44	37	977	51.0	-69115.0	-65739.0	-5807071.0
16	14	44	38	27	52.0	-179616.0	-65867.0	-5806826.0
16	14	44	38	27	53.0	-232451.0	-66094.0	-5808145.0
16	14	44	38	28	54.0	-207830.0	-65954.0	-5807991.0
16	14	44	38	28	55.0	-227424.0	-65001.0	-5807340.0
16	14	44	38	28	56.0	-220812.0	-65147.0	-5806696.0
16	14	44	38	28	57.0	-137102.0	-65912.0	-5806801.0
16	14	44	38	29	58.0	29908.0	-66120.0	-5807392.0
16	14	44	38	29	59.0	143571.0	-66714.0	-5806887.0
16	14	44	38	29	60.0	296132.0	-67130.0	-5806645.0
16	14	44	38	29	61.0	355238.0	-67144.0	-5807936.0
16	14	44	38	30	62.0	432533.0	-67484.0	-5807788.0
16	14	44	38	30	63.0	531474.0	-67223.0	-5807157.0
16	14	44	38	30	64.0	689155.0	-66674.0	-5806724.0
16	14	44	38	30	65.0	893316.0	-66868.0	-5807848.0
16	14	44	38	31	66.0	1103729.0	-66889.0	-5808057.0
16	14	44	38	31	68.0	1544610.0	-65917.0	-5806804.0
16	14	44	38	31	69.0	1694767.0	-65325.0	-5806860.0
16	14	44	38	31	70.0	1608489.0	-66201.0	-5808163.0
16	14	44	38	32	71.0	1557996.0	-66522.0	-5807755.0
16	14	44	38	32	72.0	1444802.0	-66618.0	-5807119.0
16	14	44	38	32	73.0	1179019.0	-66420.0	-5806788.0
16	14	44	38	32	74.0	502256.0	-66317.0	-5807960.0
16	14	44	38	86	75.0	459153.0	-65682.0	-5807781.0
16	14	44	38	86	76.0	914443.0	-65477.0	-5807204.0
16	14	44	38	86	77.0	889188.0	-64609.0	-5806773.0
16	14	44	38	87	78.0	652208.0	-64086.0	-5808069.0
16	14	44	38	87	79.0	213933.0	-63847.0	-5808061.0
16	14	44	38	87	80.0	-293014.0	-64089.0	-5807404.0
16	14	44	38	87	81.0	-687912.0	-63802.0	-5806741.0
16	14	44	38	88	82.0	-1123496.0	-63827.0	-5807584.0
16	14	44	38	88	83.0	-1377636.0	-63681.0	-5807942.0
16	14	44	38	88	84.0	-1556597.0	-63692.0	-5807313.0
16	14	44	38	88	85.0	-1453501.0	-62750.0	-5806593.0
16	14	44	38	89	86.0	-1042308.0	-61623.0	-5806936.0
16	14	44	38	89	87.0	-464982.0	-61034.0	-5807872.0
16	14	44	38	89	88.0	217572.0	-59609.0	-5807490.0
16	14	44	38	89	89.0	1015761.0	-58356.0	-5806835.0
16	14	44	38	90	91.0	1284186.0	-55891.0	-5807597.0
16	14	44	38	90	92.0	674209.0	-55775.0	-5807486.0
16	14	44	38	90	93.0	181344.0	-55250.0	-5806742.0
16	14	44	38	90	94.0	-514134.0	-53617.0	-5806619.0
16	14	44	38	91	95.0	-865363.0	-52636.0	-5807884.0
16	14	44	38	91	96.0	-1038544.0	-51692.0	-5807702.0
16	14	44	38	91	97.0	-981024.0	-50236.0	-5807021.0
16	14	44	38	91	98.0	-846972.0	-48567.0	-5806450.0
16	14	44	38	92	99.0	-742486.0	-47254.0	-5806766.0
16	14	44	38	92	100.0	-702075.0	-45744.0	-5807621.0
16	14	44	38	92	101.0	-601454.0	-44706.0	-5807081.0
16	14	44	38	92	102.0	-630414.0	-44264.0	-5806391.0
16	14	44	38	92	103.0	-628348.0	-43558.0	-5806654.0
16	14	44	38	147	104.0	-548420.0	-42327.0	-5807958.0
16	14	44	38	147	105.0	-583487.0	-41624.0	-5807567.0
16	14	44	38	147	106.0	-545897.0	-40219.0	-5806866.0
16	14	44	38	148	107.0	-497135.0	-39559.0	-5807004.0
16	14	44	38	148	108.0	-500157.0	-38055.0	-5808214.0
16	14	44	38	148	109.0	-574737.0	-36861.0	-5807885.0
16	14	44	38	148	110.0	-516658.0	-35276.0	-5807153.0
16	14	44	38	149	111.0	-474069.0	-33576.0	-5806966.0
16	14	44	38	149	112.0	-517058.0	-32512.0	-5808121.0
16	14	44	38	149	113.0	-629184.0	-31448.0	-5808005.0
16	14	44	38	149	114.0	-777551.0	-30374.0	-5807261.0
16	14	44	38	150	115.0	-765459.0	-28984.0	-5806751.0
16	14	44	38	150	116.0	-611417.0	-26788.0	-5807560.0
16	14	44	38	150	117.0	-547609.0	-25015.0	-5808180.0
16	14	44	38	150	118.0	-255751.0	-23057.0	-5807526.0
16	14	44	38	151	119.0	64977.0	-21869.0	-5806952.0
16	14	44	38	151	120.0	178202.0	-20301.0	-5806956.0
16	14	44	38	219	121.0	239157.0	-18523.0	-5807836.0
16	14	44	38	279	122.0	218451.0	-16594.0	-5807320.0
16	14	44	38	279	123.0	235891.0	-15280.0	-5806724.0
16	14	44	38	279	124.0	256275.0	-13321.0	-5806847.0
16	14	44	38	280	125.0	155600.0	-12342.0	-5807944.0
16	14	44	38	280	126.0	55374.0	-11705.0	-5807423.0
16	14	44	38	280	127.0	-5578.0	-10990.0	-5806797.0
16	14	44	38	280	128.0	11996.0	-10267.0	-5806645.0
16	14	44	38	280	129.0	110852.0	-8957.0	-5807979.0
16	14	44	38	281	130.0	141335.0	-7871.0	-5807717.0
16	14	44	38	281	131.0	117332.0	-6609.0	-5807037.0
16	14	44	38	281	132.0	131899.0	-5239.0	-5806497.0
16	14	44	38	281	133.0	90108.0	-4150.0	-5807462.0
16	14	44	38	282	134.0	-45238.0	-3713.0	-5807876.0
16	14	44	38	282	136.0	-176156.0	-6.0	-5806560.0
16	14	44	38	282	137.0	-203097.0	366.0	-5806751.0
16	14	44	38	283	181.0	800860.0	33424.0	-5806336.0
16	14	44	38	283	182.0	569715.0	33203.0	-5806179.0
16	14	44	38	348	183.0	461329.0	32910.0	-5807509.0
16	14	44	38	429	184.0	461409.0	33126.0	-5807427.0
16	14	44	38	429	185.0	404076.0	33568.0	-5806701.0
16	14	44	38	429	186.0	300346.0	33647.0	-5806264.0
16	14	44	38	429	187.0	255924.0	33702.0	-5807276.0
16	14	44	38	430	188.0	230311.0	34126.0	-5807436.0
16	14	44	38	430	189.0	183795.0	34289.0	-5806732.0
16	14	44	38	430	190.0	172298.0	34115.0	-5806202.0
16	14	44	38	430	191.0	200381.0	34026.0	-5807131.0
16	14	44	38	431	192.0	260640.0	33892.0	-5807780.0
16	14	44	38	431	193.0	314722.0	33593.0	-5807161.0
16	14	44	38	431	194.0	360796.0	33378.0	-5806519.0
16	14	44	38	431	195.0	427903.0	33332.0	-5806537.0
16	14	44	38	431	196.0	489648.0	33745.0	-5807689.0
16	14	44	38	432	203.0	714037.0	35103.0	-5806266.0
16	14	44	38	432	226.0	-649149.0	30943.0	-5807101.0
16	14	44	38	432	248.0	-178921.0	27687.0	-5806376.0
16	14	44	38	432	249.0	-384801.0	26603.0	-5807361.0
16	14	44	38	433	250.0	-597303.0	26576.0	-5807619.0
16	14	44	38	433	251.0	-823568.0	27251.0	-5806965.0
16	14	44	38	433	252.0	-1081657.0	27485.0	-5806687.0
16	14	44	38	433	253.0	-1318092.0	26887.0	-5807836.0
16	14	44	38	434	254.0	-1535538.0	26508.0	-5807647.0
16	14	44	38	434	255.0	-1655400.0	26544.0	-5806966.0
16	14	44	38	434	0.0	-1672687.0	26883.0	-5806683.0
16	14	44	38	434	1.0	-1590101.0	26406.0	-5807970.0
16	14	44	38	435	2.0	-1469166.0	25840.0	-5807979.0
16	14	44	38	435	3.0	-1306704.0	25931.0	-5807262.0
16	14	44	38	435	4.0	-1135185.0	25829.0	-5806697.0
16	14	44	38	435	5.0	-968922.0	25929.0	-5807227.0
16	14	44	38	436	6.0	-821837.0	26414.0	-5808179.0
16	14	44	38	436	7.0	-656434.0	26356.0	-5807567.0
16	14	44	38	436	8.0	-480552.0	26393.0	-5807002.0
16	14	44	38	436	9.0	-310958.0	26125.0	-5807410.0
16	14	44	38	437	10.0	-131934.0	25781.0	-5808532.0
16	14	44	38	437	11.0	63738.0	25176.0	-5807997.0
16	14	44	38	437	12.0	210697.0	24723.0	-5807421.0
16	14	44	38	437	14.0	396063.0	25258.0	-5807566.0
16	14	44	38	437	15.0	458220.0	24829.0	-5807296.0
16	14	44	38	438	16.0	565142.0	24123.0	-5807246.0
16	14	44	38	438	17.0	751422.0	24169.0	-5808522.0
16	14	44	38	438	18.0	991741.0	24754.0	-5808372.0
16	14	44	38	438	19.0	1230031.0	24872.0	-5807637.0
16	14	44	38	439	20.0	1376549.0	24086.0	-5807068.0
16	14	44	38	508	21.0	1402435.0	24438.0	-5807436.0
16	14	44	38	509	22.0	1282619.0	24730.0	-5808436.0
16	14	44	38	509	23.0	1128593.0	25748.0	-5807817.0
16	14	44	38	509	24.0	1030688.0	26039.0	-5807226.0
16	14	44	38	509	25.0	897712.0	25943.0	-5807497.0
16	14	44	38	510	26.0	780668.0	25663.0	-5808634.0
16	14	44	38	510	27.0	644703.0	25864.0	-5808099.0
16	14	44	38	510	28.0	546826.0	25569.0	-5807516.0
16	14	44	38	510	29.0	389682.0	25084.0	-5807805.0
16	14	44	38	511	30.0	280455.0	25024.0	-5808984.0
16	14	44	38	511	31.0	214966.0	24891.0	-5808452.0
16	14	44	38	511	32.0	117191.0	24596.0	-5807823.0
16	14	44	38	511	33.0	83541.0	24848.0	-5807508.0
16	14	44	38	512	34.0	29126.0	24942.0	-5808925.0
16	14	44	38	512	35.0	-103745.0	24924.0	-5808851.0
16	14	44	38	512	37.0	-177371.0	24447.0	-5807566.0
16	14	44	38	512	38.0	-173331.0	24331.0	-5807994.0
16	14	44	38	513	39.0	-83587.0	24278.0	-5808523.0
16	14	44	38	513	40.0	-45899.0	24646.0	-5807962.0
16	14	44	38	513	41.0	19161.0	24719.0	-5807616.0
16	14	44	38	513	42.0	174443.0	24940.0	-5808890.0
16	14	44	38	513	43.0	282048.0	25533.0	-5808854.0
16	14	44	38	514	44.0	295850.0	26289.0	-5808244.0
16	14	44	38	514	45.0	242023.0	28093.0	-5807846.0
16	14	44	38	514	46.0	163363.0	29175.0	-5809147.0
16	14	44	38	515	47.0	43579.0	30649.0	-5809222.0
16	14	44	38	515	48.0	-123462.0	31638.0	-5808553.0
16	14	44	38	515	49.0	-219882.0	32896.0	-5807905.0
16	14	44	38	515	50.0	-386152.0	34392.0	-5808167.0
16	14	44	38	516	51.0	-603729.0	36439.0	-5808721.0
16	14	44	38	516	52.0	-771496.0	39214.0	-5808101.0
16	14	44	38	516	53.0	-919083.0	42286.0	-5807416.0
16	14	44	38	516	54.0	-965159.0	45944.0	-5807544.0
16	14	44	38	517	55.0	-985338.0	49594.0	-5807937.0
16	14	44	38	517	56.0	-1101213.0	53754.0	-5807365.0
16	14	44	38	517	57.0	-1202232.0	59328.0	-5807295.0
16	14	44	38	517	59.0	-1360777.0	69458.0	-5808219.0
16	14	44	38	518	60.0	-1380719.0	76205.0	-5807567.0
16	14	44	38	518	61.0	-1399981.0	82826.0	-5807208.0
16	14	44	38	518	62.0	-1449121.0	90126.0	-5808426.0
16	14	44	38	518	63.0	-1432520.0	97674.0	-5808356.0
16	14	44	38	519	64.0	-1255466.0	105909.0	-5807712.0
16	14	44	38	519	65.0	-561746.0	114379.0	-5807348.0
16	14	44	38	586	66.0	660547.0	123285.0	-5808623.0
16	14	44	38	586	67.0	1660674.0	132834.0	-5808907.0
16	14	44	38	586	68.0	1893397.0	143229.0	-5808207.0
16	14	44	38	586	69.0	1494881.0	152937.0	-5807547.0
16	14	44	38	587	70.0	715071.0	162383.0	-5807328.0
16	14	44	38	587	71.0	-185307.0	171929.0	-5808076.0
16	14	44	38	587	72.0	-934482.0	181349.0	-5807555.0
16	14	44	38	587	73.0	-1442159.0	191418.0	-5806845.0
16	14	44	38	588	74.0	-1742357.0	201093.0	-5806705.0
16	14	44	38	588	75.0	-1913717.0	210601.0	-5807359.0
16	14	44	38	588	76.0	-1996893.0	220031.0	-5806889.0
16	14	44	38	588	77.0	-1968885.0	228814.0	-5806836.0
16	14	44	38	589	78.0	-1872075.0	237487.0	-5808157.0
16	14	44	38	589	79.0	-1742111.0	246204.0	-5807879.0
16	14	44	38	589	80.0	-1624732.0	254143.0	-5807213.0
16	14	44	38	589	82.0	-1360263.0	268074.0	-5806958.0
16	14	44	38	590	83.0	-1182664.0	273429.0	-5808266.0
16	14	44	38	590	84.0	-1038401.0	278554.0	-5807718.0
16	14	44	38	590	85.0	-899703.0	283597.0	-5807124.0
16	14	44	38	590	86.0	-752759.0	287668.0	-5806960.0
16	14	44	38	591	87.0	-645679.0	291181.0	-5808334.0
16	14	44	38	591	88.0	-643029.0	294516.0	-5808047.0
16	14	44	38	591	89.0	-925251.0	297089.0	-5807415.0
16	14	44	38	591	90.0	-1394989.0	299458.0	-5806666.0
16	14	44	38	672	91.0	-1323339.0	300089.0	-5807332.0
16	14	44	38	672	92.0	-520955.0	299589.0	-5808071.0
16	14	44	38	673	93.0	238946.0	298337.0	-5807606.0
16	14	44	38	673	94.0	814627.0	296237.0	-5806941.0
16	14	44	38	673	95.0	1466225.0	294471.0	-5807315.0
16	14	44	38	673	96.0	1989336.0	292031.0	-5808554.0
16	14	44	38	674	97.0	2364602.0	289286.0	-5808216.0
16	14	44	38	674	98.0	2583471.0	285419.0	-5807491.0
16	14	44	38	674	99.0	2680859.0	281072.0	-5806887.0
16	14	44	38	675	100.0	2670417.0	276039.0	-5807055.0
16	14	44	38	675	101.0	2632393.0	270443.0	-5808246.0
16	14	44	38	675	102.0	2545909.0	263989.0	-5807774.0
16	14	44	38	675	104.0	2344679.0	250597.0	-5806758.0
16	14	44	38	676	105.0	2161253.0	242635.0	-5807875.0
16	14	44	38	676	106.0	1974635.0	233625.0	-5807946.0
16	14	44	38	676	127.0	-354896.0	34588.0	-5808253.0
16	14	44	38	676	128.0	-66598.0	25313.0	-5807832.0
16	14	44	38	677	129.0	128463.0	16889.0	-5807155.0
16	14	44	38	677	130.0	262484.0	8809.0	-5806632.0
16	14	44	38	677	131.0	348638.0	1131.0	-5807213.0
16	14	44	38	677	132.0	312603.0	-6067.0	-5808050.0
16	14	44	38	678	133.0	194288.0	-13125.0	-5807416.0
16	14	44	38	763	134.0	6589.0	-20261.0	-5806826.0
16	14	44	38	763	135.0	-257186.0	-27044.0	-5806767.0
16	14	44	38	763	136.0	-559088.0	-34663.0	-5807981.0
16	14	44	38	764	137.0	-870887.0	-41272.0	-5807582.0
16	14	44	38	764	138.0	-1126625.0	-48350.0	-5806916.0
16	14	44	38	764	139.0	-1282466.0	-54489.0	-5806291.0
16	14	44	38	764	140.0	-1313849.0	-59049.0	-5806713.0
16	14	44	38	765	141.0	-1247611.0	-64590.0	-5806907.0
16	14	44	38	765	142.0	-1125928.0	-69519.0	-5806379.0
16	14	44	38	765	143.0	-1005003.0	-73764.0	-5806328.0
16	14	44	38	766	144.0	-905877.0	-78712.0	-5807597.0
16	14	44	38	766	145.0	-805784.0	-82994.0	-5807266.0
16	14	44	38	766	146.0	-746170.0	-87476.0	-5806657.0
16	14	44	38	766	147.0	-596079.0	-91090.0	-5806111.0
16	14	44	38	767	149.0	-471687.0	-96841.0	-5807379.0
16	14	44	38	767	157.0	468085.0	-112110.0	-5807292.0
16	14	44	38	767	158.0	625804.0	-114194.0	-5806783.0
16	14	44	38	767	159.0	811922.0	-115441.0	-5806336.0
16	14	44	38	768	160.0	820071.0	-116282.0	-5807377.0
16	14	44	38	768	161.0	837019.0	-117536.0	-5807646.0
16	14	44	38	768	162.0	889350.0	-118436.0	-5806993.0
16	14	44	38	768	163.0	936495.0	-118951.0	-5806353.0
16	14	44	38	769	164.0	996554.0	-118873.0	-5806342.0
16	14	44	38	769	165.0	1090748.0	-119768.0	-5807232.0
16	14	44	38	769	166.0	1120813.0	-121759.0	-5806784.0
16	14	44	38	769	167.0	1172616.0	-122274.0	-5806297.0
16	14	44	38	770	168.0	1225028.0	-122624.0	-5807277.0
16	14	44	38	770	169.0	1183097.0	-123206.0	-5807562.0
16	14	44	38	770	170.0	1031255.0	-124605.0	-5806865.0
16	14	44	38	770	171.0	872891.0	-125799.0	-5806295.0
16	14	44	38	771	172.0	659312.0	-126472.0	-5806881.0
16	14	44	38	771	173.0	372335.0	-128332.0	-5807644.0
16	14	44	38	771	174.0	55628.0	-129958.0	-5807001.0
16	14	44	38	771	175.0	-89409.0	-130822.0	-5806467.0
16	14	44	38	772	176.0	-144009.0	-131407.0	-5807181.0
16	14	44	38	772	177.0	-335224.0	-132143.0	-5807840.0
16	14	44	38	772	178.0	-365559.0	-133467.0	-5807191.0
16	14	44	38	772	179.0	-89231.0	-134440.0	-5806613.0
16	14	44	38	773	180.0	314806.0	-136046.0	-5806251.0
16	14	44	38	773	181.0	538695.0	-137744.0	-5807201.0
16	14	44	38	773	182.0	455666.0	-138168.0	-5806931.0
16	14	44	38	773	183.0	162636.0	-138289.0	-5806325.0
16	14	44	38	774	184.0	-172229.0	-138943.0	-5806159.0
16	14	44	38	774	185.0	-475607.0	-139737.0	-5807242.0
16	14	44	38	774	186.0	-588286.0	-139963.0	-5806907.0
16	14	44	38	775	187.0	-616077.0	-140337.0	-5806524.0
16	14	44	38	775	188.0	-658016.0	-141839.0	-5807577.0
16	14	44	38	775	189.0	-702771.0	-142344.0	-5807717.0
16	14	44	38	776	190.0	-781883.0	-142193.0	-5807026.0
16	14	44	38	776	191.0	-895351.0	-141626.0	-5806409.0
16	14	44	38	776	192.0	-952011.0	-142429.0	-5806484.0
16	14	44	38	776	193.0	-993840.0	-143566.0	-5807882.0
16	14	44	38	777	194.0	-1121625.0	-143160.0	-5807467.0
16	14	44	38	777	195.0	-1279585.0	-143127.0	-5806807.0
16	14	44	38	777	196.0	-1481920.0	-143049.0	-5806473.0
16	14	44	38	777	197.0	-1615227.0	-141576.0	-5807764.0
16	14	44	38	778	198.0	-1656600.0	-140036.0	-5807566.0
16	14	44	38	778	199.0	-1641582.0	-139505.0	-5806966.0
16	14	44	38	778	200.0	-1566743.0	-138018.0	-5806307.0
16	14	44	38	778	201.0	-1416803.0	-136792.0	-5807091.0
16	14	44	38	779	202.0	-1261266.0	-135870.0	-5807646.0
16	14	44	38	779	203.0	-1070148.0	-134859.0	-5807120.0
16	14	44	38	857	204.0	-860677.0	-133370.0	-5806541.0
16	14	44	38	858	205.0	-555664.0	-131518.0	-5807538.0
16	14	44	38	858	206.0	-198377.0	-129858.0	-5807910.0
16	14	44	38	858	207.0	-251037.0	-128436.0	-5807317.0
16	14	44	38	859	208.0	-142021.0	-126964.0	-5806635.0
16	14	44	38	859	209.0	245409.0	-125201.0	-5806857.0
16	14	44	38	859	210.0	638054.0	-123834.0	-5808142.0
16	14	44	38	859	211.0	838759.0	-122972.0	-5807796.0
16	14	44	38	860	212.0	889763.0	-120873.0	-5807111.0
16	14	44	38	860	213.0	970874.0	-118291.0	-5806620.0
16	14	44	38	860	214.0	1142486.0	-116762.0	-5807686.0
16	14	44	38	860	215.0	1362079.0	-114612.0	-5807980.0
16	14	44	38	861	216.0	1598619.0	-112392.0	-5807364.0
16	14	44	38	861	217.0	1865133.0	-110366.0	-5806823.0
16	14	44	38	861	218.0	2275424.0	-109146.0	-5807844.0
16	14	44	38	862	219.0	2690596.0	-107582.0	-5808486.0
16	14	44	38	862	220.0	2892632.0	-104672.0	-5807884.0
16	14	44	38	862	221.0	2873858.0	-100459.0	-5807260.0
16	14	44	38	862	222.0	2630246.0	-97519.0	-5807792.0
16	14	44	38	863	223.0	2192153.0	-95745.0	-5808589.0
16	14	44	38	863	224.0	1650613.0	-94507.0	-5808004.0
16	14	44	38	863	225.0	1109363.0	-92380.0	-5807290.0
16	14	44	38	863	226.0	641506.0	-91665.0	-5807917.0
16	14	44	38	864	227.0	272464.0	-89196.0	-5808551.0
16	14	44	38	864	228.0	-35767.0	-86912.0	-5807965.0
16	14	44	38	864	229.0	-259837.0	-85876.0	-5807249.0
16	14	44	38	864	230.0	-434697.0	-84546.0	-5806901.0
16	14	44	38	865	231.0	-646918.0	-82980.0	-5807936.0
16	14	44	38	865	232.0	-904626.0	-81035.0	-5807977.0
16	14	44	38	865	233.0	-1131783.0	-79364.0	-5807212.0
16	14	44	38	866	234.0	-1257006.0	-77300.0	-5806969.0
16	14	44	38	866	235.0	-1294436.0	-74849.0	-5808122.0
16	14	44	38	866	236.0	-1228436.0	-73211.0	-5808132.0
16	14	44	38	866	237.0	-1134578.0	-71473.0	-5807417.0
16	14	44	38	867	238.0	-1125238.0	-70719.0	-5807308.0
16	14	44	38	867	239.0	-1275901.0	-69329.0	-5808705.0
16	14	44	38	867	240.0	-1368672.0	-68274.0	-5808669.0
16	14	44	38	949	241.0	-1379084.0	-67744.0	-5807936.0
16	14	44	38	950	242.0	-1340155.0	-66701.0	-5807376.0
16	14	44	38	950	243.0	-1352731.0	-65249.0	-5807786.0
16	14	44	38	950	244.0	-1422444.0	-63962.0	-5808650.0
16	14	44	38	950	245.0	-1484504.0	-62875.0	-5808046.0
16	14	44	38	951	246.0	-1515377.0	-62489.0	-5807434.0
16	14	44	38	951	247.0	-1505940.0	-62154.0	-5807527.0
16	14	44	38	951	248.0	-1394568.0	-62039.0	-5808559.0
16	14	44	38	951	249.0	-1261402.0	-61246.0	-5808077.0
16	14	44	38	952	250.0	-1200357.0	-60487.0	-5807462.0
16	14	44	38	952	251.0	-1122042.0	-60090.0	-5807498.0
16	14	44	38	952	252.0	-1017364.0	-60307.0	-5808584.0
16	14	44	38	952	253.0	-865691.0	-60534.0	-5808208.0
16	14	44	38	953	254.0	-695394.0	-60209.0	-5807614.0
16	14	44	38	953	255.0	-516472.0	-60134.0	-5807732.0
16	14	44	38	953	0.0	-349682.0	-60609.0	-5808784.0
16	14	44	38	953	1.0	-175792.0	-60512.0	-5808319.0
16	14	44	38	954	2.0	-78028.0	-59070.0	-5807677.0
16	14	44	38	954	3.0	69065.0	-58972.0	-5807217.0
16	14	44	38	954	4.0	255401.0	-59694.0	-5808286.0
16	14	44	38	954	5.0	372133.0	-60412.0	-5808584.0
16	14	44	38	955	6.0	377750.0	-60361.0	-5807894.0
16	14	44	38	955	7.0	412603.0	-61685.0	-5807364.0
16	14	44	38	955	8.0	512068.0	-62337.0	-5808127.0
16	14	44	38	955	9.0	540039.0	-61678.0	-5808799.0
16	14	44	38	956	10.0	475733.0	-61721.0	-5808150.0
16	14	44	38	956	11.0	403068.0	-62299.0	-5807670.0
16	14	44	38	956	12.0	422219.0	-62516.0	-5808617.0
16	14	44	38	956	13.0	448990.0	-62654.0	-5809034.0
16	14	44	38	957	14.0	448124.0	-63002.0	-5808357.0
16	14	44	38	957	15.0	440741.0	-63772.0	-5807804.0
16	14	44	38	957	16.0	454289.0	-63925.0	-5808495.0
16	14	44	38	957	17.0	485148.0	-63752.0	-5809112.0
16	14	44	38	958	18.0	486304.0	-64211.0	-5808441.0
16	14	44	38	958	19.0	538021.0	-63932.0	-5807876.0
16	14	44	38	958	20.0	625788.0	-64699.0	-5808326.0
16	14	44	38	958	21.0	683325.0	-65682.0	-5809215.0
16	14	44	38	958	22.0	787151.0	-67107.0	-5808590.0
16	14	44	38	959	23.0	859833.0	-67234.0	-5807998.0
16	14	44	38	959	24.0	920427.0	-66284.0	-5807486.0
16	14	44	38	959	25.0	989938.0	-66151.0	-5808227.0
16	14	44	38	959	26.0	1020689.0	-66472.0	-5808050.0
16	14	44	38	959	27.0	1020979.0	-66686.0	-5807644.0
16	14	44	38	960	28.0	966534.0	-66400.0	-5808749.0
16	14	44	38	960	29.0	736949.0	-66429.0	-5809103.0
16	14	44	38	960	30.0	496945.0	-66187.0	-5808399.0
16	14	44	38	960	31.0	384244.0	-65506.0	-5807894.0
16	14	44	38	961	32.0	373449.0	-64382.0	-5808599.0
16	14	44	38	961	33.0	511855.0	-64512.0	-5809134.0
16	14	44	38	961	34.0	815133.0	-64073.0	-5808468.0
16	14	44	38	961	35.0	210021.0	-63142.0	-5807803.0
16	14	44	38	962	36.0	-265670.0	-63870.0	-5807181.0
16	14	44	39	45	37.0	-94579.0	-64966.0	-5807865.0
16	14	44	39	45	38.0	217776.0	-64241.0	-5807828.0
16	14	44	39	46	39.0	75600.0	-62137.0	-5807402.0
16	14	44	39	46	40.0	-47627.0	-61625.0	-5808324.0
16	14	44	39	46	41.0	-9532.0	-61613.0	-5808641.0
16	14	44	39	47	42.0	130892.0	-61722.0	-5807937.0
16	14	44	39	47	43.0	261590.0	-61461.0	-5807447.0
16	14	44	39	47	44.0	244419.0	-60955.0	-5808299.0
16	14	44	39	48	45.0	269783.0	-59997.0	-5808909.0
16	14	44	39	48	46.0	371419.0	-58574.0	-5808211.0
16	14	44	39	48	47.0	380316.0	-57235.0	-5807631.0
16	14	44	39	48	48.0	273487.0	-56904.0	-5807873.0
16	14	44	39	49	49.0	285336.0	-56196.0	-5808921.0
16	14	44	39	49	50.0	341229.0	-55211.0	-5808385.0
16	14	44	39	49	51.0	347543.0	-53619.0	-5807734.0
16	14	44	39	49	52.0	293368.0	-52922.0	-5807556.0
16	14	44	39	50	53.0	234166.0	-51909.0	-5808785.0
16	14	44	39	50	54.0	251981.0	-50745.0	-5808516.0
16	14	44	39	50	55.0	224853.0	-49131.0	-5807841.0
16	14	44	39	50	56.0	137689.0	-48586.0	-5807239.0
16	14	44	39	51	57.0	-2931.0	-48320.0	-5807950.0
16	14	44	39	51	58.0	-191209.0	-46736.0	-5808547.0
16	14	44	39	51	59.0	-375314.0	-45652.0	-5807920.0
16	14	44	39	52	60.0	-593994.0	-44749.0	-5807402.0
16	14	44	39	52	61.0	-846196.0	-42878.0	-5808391.0
16	14	44	39	52	62.0	-1089256.0	-40891.0	-5808621.0
16	14	44	39	52	63.0	-1264772.0	-39501.0	-5807935.0
16	14	44	39	53	64.0	-1358509.0	-38702.0	-5807281.0
16	14	44	39	53	65.0	-1416689.0	-37151.0	-5807486.0
16	14	44	39	53	66.0	-1438994.0	-35929.0	-5808779.0
16	14	44	39	54	67.0	-1409177.0	-35445.0	-5808287.0
16	14	44	39	54	68.0	-1302688.0	-34002.0	-5807681.0
16	14	44	39	54	69.0	-1137769.0	-31274.0	-5807507.0
16	14	44	39	55	70.0	-976207.0	-28730.0	-5808851.0
16	14	44	39	55	71.0	-771952.0	-27755.0	-5808589.0
16	14	44	39	55	72.0	-510964.0	-25988.0	-5808046.0
16	14	44	39	56	73.0	-231444.0	-24794.0	-5807434.0
16	14	44	39	56	74.0	3731.0	-24143.0	-5808323.0
16	14	44	39	56	75.0	196674.0	-22804.0	-5809219.0
16	14	44	39	57	76.0	331470.0	-21339.0	-5808704.0
16	14	44	39	57	77.0	397721.0	-18927.0	-5808032.0
16	14	44	39	57	78.0	379071.0	-16456.0	-5808872.0
16	14	44	39	58	79.0	323550.0	-15469.0	-5809694.0
16	14	44	39	58	80.0	221043.0	-14382.0	-5809174.0
16	14	44	39	58	81.0	117398.0	-13217.0	-5808455.0
16	14	44	39	140	82.0	21380.0	-12519.0	-5808564.0
16	14	44	39	141	83.0	-93658.0	-10960.0	-5809649.0
16	14	44	39	141	84.0	-143112.0	-8862.0	-5809279.0
16	14	44	39	141	85.0	-200479.0	-7737.0	-5808586.0
16	14	44	39	141	86.0	-272807.0	-6341.0	-5808002.0
16	14	44	39	142	87.0	-318791.0	-5392.0	-5808734.0
16	14	44	39	142	88.0	-347774.0	-4227.0	-5809384.0
16	14	44	39	142	89.0	-397146.0	-3427.0	-5808753.0
16	14	44	39	143	90.0	-456247.0	-2754.0	-5808259.0
16	14	44	39	143	91.0	-500984.0	-1012.0	-5809324.0
16	14	44	39	143	92.0	-540764.0	1081.0	-5809656.0
16	14	44	39	143	93.0	-578195.0	1963.0	-5808961.0
16	14	44	39	144	94.0	-593801.0	2965.0	-5808326.0
16	14	44	39	144	95.0	-584927.0	3483.0	-5808929.0
16	14	44	39	144	96.0	-586476.0	4143.0	-5809840.0
16	14	44	39	145	97.0	-614916.0	5268.0	-5809295.0
16	14	44	39	145	98.0	-632040.0	6924.0	-5808587.0
16	14	44	39	145	99.0	-609059.0	9232.0	-5808476.0
16	14	44	39	145	100.0	-529426.0	10434.0	-5809729.0
16	14	44	39	146	101.0	-380935.0	11197.0	-5809587.0
16	14	44	39	146	102.0	-297336.0	11413.0	-5808900.0
16	14	44	39	146	103.0	-280596.0	12084.0	-5808426.0
16	14	44	39	146	104.0	-270718.0	12341.0	-5809297.0
16	14	44	39	147	105.0	-246056.0	12856.0	-5809749.0
16	14	44	39	147	106.0	-230865.0	14366.0	-5809047.0
16	14	44	39	147	107.0	-235737.0	14809.0	-5808582.0
16	14	44	39	147	108.0	-238337.0	15236.0	-5809570.0
16	14	44	39	148	109.0	-226921.0	16358.0	-5810089.0
16	14	44	39	148	110.0	-197219.0	17693.0	-5809383.0
16	14	44	39	148	111.0	-29357.0	18889.0	-5808809.0
16	14	44	39	149	112.0	39930.0	19571.0	-5809019.0
16	14	44	39	149	113.0	-191354.0	20494.0	-5810066.0
16	14	44	39	149	114.0	-365733.0	21844.0	-5809494.0
16	14	44	39	149	115.0	-699299.0	23749.0	-5808826.0
16	14	44	39	150	116.0	-1011536.0	24505.0	-5808179.0
16	14	44	39	150	117.0	-1287868.0	24703.0	-5808982.0
16	14	44	39	150	118.0	-1383413.0	25163.0	-5809125.0
16	14	44	39	151	119.0	-1387749.0	24734.0	-5808562.0
16	14	44	39	151	120.0	-1351569.0	25283.0	-5809018.0
16	14	44	39	151	121.0	-1315842.0	26654.0	-5809932.0
16	14	44	39	151	122.0	-1239914.0	26957.0	-5809361.0
16	14	44	39	152	123.0	-1160826.0	27090.0	-5808780.0
16	14	44	39	152	124.0	-1083337.0	27923.0	-5808638.0
16	14	44	39	152	125.0	-971304.0	28348.0	-5810134.0
16	14	44	39	153	126.0	-758224.0	28555.0	-5809914.0
16	14	44	39	153	127.0	-500878.0	28934.0	-5809322.0
16	14	44	39	231	128.0	-237417.0	29039.0	-5808783.0
16	14	44	39	232	129.0	-11777.0	29795.0	-5809436.0
16	14	44	39	232	130.0	170184.0	31021.0	-5809459.0
16	14	44	39	232	131.0	327668.0	31228.0	-5808865.0
16	14	44	39	232	132.0	504546.0	31308.0	-5808281.0
16	14	44	39	233	133.0	662474.0	31376.0	-5808972.0
16	14	44	39	233	134.0	779901.0	30571.0	-5809025.0
16	14	44	39	233	135.0	933203.0	31239.0	-5808462.0
16	14	44	39	234	136.0	1102301.0	31783.0	-5808808.0
16	14	44	39	234	137.0	1258641.0	32030.0	-5809790.0
16	14	44	39	234	138.0	1373962.0	32138.0	-5809227.0
16	14	44	39	234	139.0	1429264.0	32496.0	-5808719.0
16	14	44	39	235	140.0	1420326.0	32837.0	-5809369.0
16	14	44	39	235	141.0	1403639.0	32420.0	-5810210.0
16	14	44	39	235	142.0	1457724.0	31133.0	-5809553.0
16	14	44	39	236	143.0	1508660.0	31034.0	-5808946.0
16	14	44	39	236	144.0	1505165.0	31154.0	-5808369.0
16	14	44	39	236	145.0	1393158.0	31193.0	-5809062.0
16	14	44	39	236	146.0	1232188.0	32473.0	-5809112.0
16	14	44	39	237	147.0	1044468.0	33043.0	-5808516.0
16	14	44	39	237	148.0	913397.0	33224.0	-5808628.0
16	14	44	39	237	149.0	891303.0	32102.0	-5809723.0
16	14	44	39	237	150.0	909817.0	31154.0	-5809201.0
16	14	44	39	238	151.0	793364.0	32210.0	-5808587.0
16	14	44	39	238	152.0	504818.0	32392.0	-5807989.0
16	14	44	39	238	153.0	172786.0	31649.0	-5808579.0
16	14	44	39	238	154.0	-658.0	31673.0	-5808536.0
16	14	44	39	239	155.0	-173416.0	31778.0	-5808029.0
16	14	44	39	239	156.0	-226820.0	31428.0	-5808899.0
16	14	44	39	239	157.0	-256217.0	31129.0	-5809511.0
16	14	44	39	240	158.0	-341340.0	31299.0	-5808795.0
16	14	44	39	240	159.0	-425624.0	30935.0	-5808214.0
16	14	44	39	240	160.0	-408131.0	30337.0	-5808706.0
16	14	44	39	240	161.0	-291580.0	29956.0	-5809619.0
16	14	44	39	241	162.0	-115358.0	29314.0	-5808988.0
16	14	44	39	241	163.0	8276.0	29625.0	-5808338.0
16	14	44	39	241	164.0	75834.0	29689.0	-5807723.0
16	14	44	39	242	165.0	146943.0	29756.0	-5808231.0
16	14	44	39	242	166.0	200417.0	29828.0	-5808436.0
16	14	44	39	242	167.0	259994.0	30161.0	-5807828.0
16	14	44	39	243	168.0	273429.0	31006.0	-5808176.0
16	14	44	39	243	169.0	217209.0	31559.0	-5809147.0
16	14	44	39	243	170.0	124724.0	31138.0	-5808571.0
16	14	44	39	244	171.0	86190.0	30800.0	-5807951.0
16	14	44	39	244	172.0	117306.0	30928.0	-5808324.0
16	14	44	39	316	173.0	183182.0	30852.0	-5809358.0
16	14	44	39	316	174.0	251428.0	30707.0	-5808802.0
16	14	44	39	316	175.0	281473.0	31843.0	-5808168.0
16	14	44	39	317	176.0	299912.0	32071.0	-5807867.0
16	14	44	39	317	177.0	305313.0	31278.0	-5809097.0
16	14	44	39	317	178.0	302155.0	31194.0	-5809041.0
16	14	44	39	318	179.0	320684.0	30411.0	-5808348.0
16	14	44	39	318	180.0	318264.0	30722.0	-5807952.0
16	14	44	39	318	181.0	290344.0	31683.0	-5809052.0
16	14	44	39	319	182.0	241381.0	32063.0	-5809096.0
16	14	44	39	319	183.0	176894.0	32063.0	-5808399.0
16	14	44	39	319	184.0	132623.0	31739.0	-5807782.0
16	14	44	39	320	185.0	105219.0	30673.0	-5807790.0
16	14	44	39	320	186.0	104086.0	30043.0	-5808666.0
16	14	44	39	320	187.0	77797.0	28878.0	-5808227.0
16	14	44	39	321	188.0	36009.0	28537.0	-5807966.0
16	14	44	39	321	189.0	1583.0	28986.0	-5809084.0
16	14	44	39	321	190.0	-36297.0	29156.0	-5808892.0
16	14	44	39	321	191.0	-70982.0	29130.0	-5808189.0
16	14	44	39	322	192.0	-94642.0	28689.0	-5807628.0
16	14	44	39	322	193.0	-126907.0	28823.0	-5808453.0
16	14	44	39	322	194.0	-190336.0	28210.0	-5809000.0
16	14	44	39	323	195.0	-277034.0	27741.0	-5808279.0
16	14	44	39	323	196.0	-380853.0	27875.0	-5807654.0
16	14	44	39	323	197.0	-514979.0	28473.0	-5807350.0
16	14	44	39	324	198.0	-655084.0	27829.0	-5807998.0
16	14	44	39	324	199.0	-774674.0	27683.0	-5807565.0
16	14	44	39	324	200.0	-848392.0	27565.0	-5807164.0
16	14	44	39	325	201.0	-864989.0	26614.0	-5808232.0
16	14	44	39	325	202.0	-827167.0	25954.0	-5808460.0
16	14	44	39	325	203.0	-744876.0	26286.0	-5807795.0
16	14	44	39	326	204.0	-690695.0	26953.0	-5807172.0
16	14	44	39	326	205.0	-683911.0	26371.0	-5807221.0
16	14	44	39	326	206.0	-686046.0	25651.0	-5808474.0
16	14	44	39	327	207.0	-706226.0	25258.0	-5808056.0
16	14	44	39	327	208.0	-718452.0	25411.0	-5807446.0
16	14	44	39	328	209.0	-696412.0	25664.0	-5807202.0
16	14	44	39	329	210.0	-664077.0	25489.0	-5808064.0
16	14	44	39	329	211.0	-556177.0	25247.0	-5807619.0
16	14	44	39	330	212.0	-256338.0	25346.0	-5807029.0
16	14	44	39	330	213.0	-89362.0	25207.0	-5806799.0
16	14	44	39	331	214.0	63023.0	24921.0	-5807688.0
16	14	44	39	331	215.0	282149.0	24856.0	-5807324.0
16	14	44	39	331	216.0	409203.0	23966.0	-5806815.0
16	14	44	39	332	217.0	583924.0	23013.0	-5807756.0
16	14	44	39	332	218.0	613310.0	22918.0	-5808375.0
16	14	44	39	332	219.0	402207.0	22435.0	-5807725.0
16	14	44	39	332	220.0	390116.0	22621.0	-5807264.0
16	14	44	39	333	221.0	261899.0	22820.0	-5808373.0
16	14	44	39	333	222.0	333814.0	22303.0	-5808784.0
16	14	44	39	405	223.0	339569.0	22598.0	-5808096.0
16	14	44	39	406	224.0	371066.0	21983.0	-5807472.0
16	14	44	39	406	225.0	413653.0	22619.0	-5807440.0
16	14	44	39	406	226.0	323383.0	22548.0	-5808877.0
16	14	44	39	407	227.0	130529.0	22528.0	-5808480.0
16	14	44	39	407	228.0	-72943.0	22436.0	-5807849.0
16	14	44	39	407	229.0	-356202.0	21940.0	-5807262.0
16	14	44	39	407	230.0	-669904.0	22667.0	-5808451.0
16	14	44	39	408	231.0	-971231.0	22884.0	-5808750.0
16	14	44	39	408	232.0	-1235512.0	23187.0	-5808133.0
16	14	44	39	408	233.0	-1445852.0	24454.0	-5807364.0
16	14	44	39	408	234.0	-1567106.0	26218.0	-5807477.0
16	14	44	39	409	235.0	-1589927.0	28790.0	-5808651.0
16	14	44	39	409	236.0	-1559806.0	31258.0	-5808342.0
16	14	44	39	409	237.0	-1520614.0	33176.0	-5807646.0
16	14	44	39	409	238.0	-1516563.0	35395.0	-5807644.0
16	14	44	39	410	239.0	-1576051.0	37171.0	-5808755.0
16	14	44	39	410	240.0	-1695830.0	40553.0	-5808452.0
16	14	44	39	410	241.0	-1874967.0	45471.0	-5807695.0
16	14	44	39	410	242.0	-2107819.0	50143.0	-5807165.0
16	14	44	39	411	243.0	-2337612.0	54683.0	-5808159.0
16	14	44	39	411	244.0	-2499052.0	59500.0	-5808624.0
16	14	44	39	411	245.0	-2567083.0	65528.0	-5807969.0
16	14	44	39	411	246.0	-2554953.0	71768.0	-5807302.0
16	14	44	39	411	247.0	-2476130.0	77239.0	-5807527.0
16	14	44	39	412	248.0	-2363042.0	84595.0	-5808651.0
16	14	44	39	412	249.0	-2241222.0	92973.0	-5808247.0
16	14	44	39	412	250.0	-2274409.0	100229.0	-5807538.0
16	14	44	39	412	251.0	-2581592.0	108319.0	-5807720.0
16	14	44	39	412	252.0	-2832209.0	117534.0	-5808784.0
16	14	44	39	413	253.0	-2923043.0	126601.0	-5808341.0
16	14	44	39	413	254.0	-2675967.0	134753.0	-5807652.0
16	14	44	39	413	255.0	-2290951.0	144480.0	-5807345.0
16	14	44	39	413	0.0	-1826909.0	155021.0	-5808494.0
16	14	44	39	413	1.0	-1335679.0	165047.0	-5808635.0
16	14	44	39	414	2.0	-994902.0	173704.0	-5807958.0
16	14	44	39	414	3.0	-1095822.0	182726.0	-5807397.0
16	14	44	39	414	4.0	-1571189.0	192054.0	-5808035.0
16	14	44	39	415	5.0	-2044416.0	201232.0	-5808677.0
16	14	44	39	491	6.0	-2410794.0	209436.0	-5807932.0
16	14	44	39	491	7.0	-2649712.0	218406.0	-5807296.0
16	14	44	39	491	8.0	-2825276.0	227276.0	-5806749.0
16	14	44	39	492	9.0	-2896494.0	234721.0	-5807486.0
16	14	44	39	492	10.0	-2776725.0	241615.0	-5807334.0
16	14	44	39	492	11.0	-2552697.0	248516.0	-5806844.0
16	14	44	39	493	12.0	-2262917.0	254811.0	-5807631.0
16	14	44	39	493	13.0	-2043929.0	259544.0	-5808361.0
16	14	44	39	493	14.0	-1799866.0	263870.0	-5807693.0
16	14	44	39	493	15.0	-1529967.0	268481.0	-5807110.0
16	14	44	39	494	16.0	-1281884.0	272749.0	-5807274.0
16	14	44	39	494	17.0	-1124176.0	275503.0	-5808491.0
16	14	44	39	495	18.0	-976161.0	277495.0	-5807992.0
16	14	44	39	495	19.0	-880731.0	279199.0	-5807388.0
16	14	44	39	495	20.0	-820949.0	279521.0	-5806834.0
16	14	44	39	495	21.0	-834966.0	278977.0	-5807611.0
16	14	44	39	496	22.0	-793494.0	278168.0	-5807563.0
16	14	44	39	496	23.0	-781456.0	277501.0	-5806947.0
16	14	44	39	496	24.0	-649181.0	275089.0	-5807234.0
16	14	44	39	496	25.0	-593330.0	272636.0	-5808141.0
16	14	44	39	497	26.0	-597672.0	269381.0	-5807569.0
16	14	44	39	497	27.0	-511242.0	265494.0	-5807027.0
16	14	44	39	497	28.0	-266063.0	260656.0	-5806843.0
16	14	44	39	498	29.0	-82989.0	255894.0	-5807976.0
16	14	44	39	498	30.0	154831.0	250983.0	-5807667.0
16	14	44	39	498	31.0	456871.0	246527.0	-5807097.0
16	14	44	39	498	32.0	644253.0	241264.0	-5807169.0
16	14	44	39	499	33.0	921083.0	234761.0	-5808521.0
16	14	44	39	499	34.0	1242688.0	227756.0	-5808137.0
16	14	44	39	499	35.0	1312715.0	219961.0	-5807521.0
16	14	44	39	499	36.0	1380009.0	211257.0	-5806884.0
16	14	44	39	500	37.0	1468143.0	203164.0	-5807165.0
16	14	44	39	500	38.0	1531426.0	195064.0	-5807495.0
16	14	44	39	500	39.0	1816951.0	186586.0	-5806979.0
16	14	44	39	500	40.0	1890414.0	177355.0	-5806741.0
16	14	44	39	501	41.0	2064873.0	168349.0	-5807854.0
16	14	44	39	501	42.0	2219540.0	158871.0	-5807667.0
16	14	44	39	579	43.0	2260606.0	148227.0	-5807086.0
16	14	44	39	580	44.0	2292331.0	138271.0	-5807547.0
16	14	44	39	580	45.0	2299225.0	129929.0	-5808602.0
16	14	44	39	581	46.0	2250819.0	120809.0	-5808087.0
16	14	44	39	581	47.0	2294118.0	110993.0	-5807432.0
16	14	44	39	581	48.0	2274799.0	101527.0	-5807021.0
16	14	44	39	581	49.0	2339859.0	92106.0	-5808117.0
16	14	44	39	582	50.0	2413603.0	81711.0	-5808331.0
16	14	44	39	582	51.0	2414183.0	71258.0	-5807654.0
16	14	44	39	582	52.0	2537325.0	61598.0	-5807174.0
16	14	44	39	582	53.0	2553555.0	53503.0	-5808002.0
16	14	44	39	583	54.0	2543502.0	45009.0	-5808550.0
16	14	44	39	583	55.0	2413101.0	36234.0	-5807859.0
16	14	44	39	583	56.0	2312597.0	27520.0	-5807250.0
16	14	44	39	583	57.0	2117838.0	18618.0	-5807558.0
16	14	44	39	584	58.0	1890349.0	9340.0	-5808761.0
16	14	44	39	584	59.0	1644542.0	787.0	-5808219.0
16	14	44	39	584	60.0	1383478.0	-6869.0	-5807637.0
16	14	44	39	584	61.0	1283234.0	-13931.0	-5808146.0
16	14	44	39	585	62.0	1206839.0	-21326.0	-5809114.0
16	14	44	39	585	63.0	999425.0	-28995.0	-5808510.0
16	14	44	39	585	64.0	979256.0	-36097.0	-5807932.0
16	14	44	39	585	65.0	931523.0	-43561.0	-5807563.0
16	14	44	39	586	66.0	888992.0	-50720.0	-5808791.0
16	14	44	39	586	67.0	947683.0	-56474.0	-5808662.0
16	14	44	39	586	68.0	932311.0	-60699.0	-5808067.0
16	14	44	39	586	69.0	930660.0	-65476.0	-5807506.0
16	14	44	39	587	70.0	889191.0	-71389.0	-5808387.0
16	14	44	39	587	71.0	880968.0	-76455.0	-5808678.0
16	14	44	39	587	72.0	904523.0	-80804.0	-5808071.0
16	14	44	39	587	73.0	867085.0	-85945.0	-5807469.0
16	14	44	39	588	74.0	881032.0	-90169.0	-5807972.0
16	14	44	39	588	75.0	920722.0	-93058.0	-5808217.0
16	14	44	39	588	76.0	903028.0	-95980.0	-5807655.0
16	14	44	39	589	77.0	974728.0	-99976.0	-5807380.0
16	14	44	39	589	78.0	1055307.0	-103370.0	-5808587.0
16	14	44	39	589	79.0	1087951.0	-106457.0	-5808366.0
16	14	44	39	589	80.0	1179528.0	-109363.0	-5807779.0
16	14	44	39	590	81.0	1207379.0	-112023.0	-5807632.0
16	14	44	39	590	82.0	1256118.0	-113816.0	-5808961.0
16	14	44	39	590	83.0	1259125.0	-114742.0	-5808684.0
16	14	44	39	590	84.0	1301751.0	-115801.0	-5808044.0
16	14	44	39	591	85.0	1212443.0	-117116.0	-5807399.0
16	14	44	39	591	86.0	1162133.0	-118766.0	-5807881.0
16	14	44	39	591	87.0	1181300.0	-120591.0	-5808676.0
16	14	44	39	591	88.0	1171954.0	-122900.0	-5808090.0
16	14	44	39	592	89.0	1139323.0	-124026.0	-5807465.0
16	14	44	39	592	90.0	1145082.0	-124460.0	-5807634.0
16	14	44	39	592	91.0	1081535.0	-124864.0	-5808821.0
16	14	44	39	593	92.0	1062254.0	-126212.0	-5808372.0
16	14	44	39	593	93.0	1053413.0	-126936.0	-5807744.0
16	14	44	39	593	94.0	1009911.0	-128188.0	-5807864.0
16	14	44	39	593	95.0	970621.0	-130169.0	-5808666.0
16	14	44	39	673	96.0	1008628.0	-131427.0	-5808149.0
16	14	44	39	674	97.0	998083.0	-132487.0	-5807487.0
16	14	44	39	674	98.0	960927.0	-132603.0	-5807558.0
16	14	44	39	675	99.0	923159.0	-132903.0	-5808057.0
16	14	44	39	675	100.0	914393.0	-133511.0	-5807492.0
16	14	44	39	676	101.0	927621.0	-134321.0	-5807262.0
16	14	44	39	676	102.0	880704.0	-135460.0	-5808651.0
16	14	44	39	676	103.0	848993.0	-137231.0	-5808652.0
16	14	44	39	677	104.0	851906.0	-137944.0	-5807972.0
16	14	44	39	677	105.0	865291.0	-136532.0	-5807364.0
16	14	44	39	677	106.0	854408.0	-136502.0	-5807854.0
16	14	44	39	678	107.0	871394.0	-137819.0	-5808739.0
16	14	44	39	678	108.0	854735.0	-138259.0	-5808126.0
16	14	44	39	678	109.0	861568.0	-138688.0	-5807467.0
16	14	44	39	678	110.0	844821.0	-140144.0	-5807797.0
16	14	44	39	679	111.0	826114.0	-140554.0	-5808926.0
16	14	44	39	679	112.0	821879.0	-139776.0	-5808391.0
16	14	44	39	679	113.0	853648.0	-138954.0	-5807779.0
16	14	44	39	679	114.0	853084.0	-138836.0	-5807580.0
16	14	44	39	680	115.0	846327.0	-138093.0	-5808254.0
16	14	44	39	680	116.0	824289.0	-136842.0	-5807781.0
16	14	44	39	680	117.0	804363.0	-136035.0	-5807182.0
16	14	44	39	681	118.0	812964.0	-135880.0	-5806965.0
16	14	44	39	681	119.0	816618.0	-135141.0	-5807622.0
16	14	44	39	681	120.0	818508.0	-133201.0	-5807170.0
16	14	44	39	681	121.0	829569.0	-131443.0	-5806850.0
16	14	44	39	682	122.0	821719.0	-129948.0	-5808168.0
16	14	44	39	682	123.0	829874.0	-128564.0	-5808347.0
16	14	44	39	682	124.0	839767.0	-127089.0	-5807672.0
16	14	44	39	682	125.0	873040.0	-126197.0	-5807162.0
16	14	44	39	683	126.0	903693.0	-124377.0	-5808136.0
16	14	44	39	683	127.0	941271.0	-122131.0	-5808613.0
16	14	44	39	683	128.0	950903.0	-119119.0	-5807928.0
16	14	44	39	684	129.0	945058.0	-116616.0	-5807309.0
16	14	44	39	684	130.0	966669.0	-114909.0	-5807074.0
16	14	44	39	684	131.0	975131.0	-113044.0	-5807969.0
16	14	44	39	685	132.0	956506.0	-110975.0	-5807571.0
16	14	44	39	685	133.0	961818.0	-109734.0	-5807071.0
16	14	44	39	685	134.0	975995.0	-107549.0	-5808064.0
16	14	44	39	686	135.0	974905.0	-103870.0	-5808759.0
16	14	44	39	686	136.0	942356.0	-102076.0	-5808057.0
16	14	44	39	765	137.0	907331.0	-100131.0	-5807434.0
16	14	44	39	766	138.0	864543.0	-97669.0	-5807136.0
16	14	44	39	766	139.0	812740.0	-95022.0	-5808402.0
16	14	44	39	766	140.0	740716.0	-93722.0	-5808209.0
16	14	44	39	767	141.0	676594.0	-92233.0	-5807590.0
16	14	44	39	767	142.0	610011.0	-89627.0	-5807153.0
16	14	44	39	767	143.0	546851.0	-86172.0	-5807874.0
16	14	44	39	767	144.0	473147.0	-83846.0	-5807572.0
16	14	44	39	768	145.0	363640.0	-81721.0	-5806973.0
16	14	44	39	768	146.0	277114.0	-79901.0	-5807221.0
16	14	44	39	768	147.0	202057.0	-78176.0	-5808291.0
16	14	44	39	768	148.0	132874.0	-75966.0	-5807712.0
16	14	44	39	769	149.0	39290.0	-73167.0	-5807091.0
16	14	44	39	769	150.0	-21319.0	-70345.0	-5806702.0
16	14	44	39	769	151.0	-88574.0	-68512.0	-5808062.0
16	14	44	39	769	152.0	-160714.0	-66353.0	-5807977.0
16	14	44	39	770	153.0	-211789.0	-65031.0	-5807372.0
16	14	44	39	770	154.0	-261586.0	-63074.0	-5806946.0
16	14	44	39	770	155.0	-296662.0	-61436.0	-5807781.0
16	14	44	39	771	156.0	-312994.0	-59818.0	-5807561.0
16	14	44	39	771	157.0	-340704.0	-57886.0	-5806964.0
16	14	44	39	771	158.0	-361035.0	-56523.0	-5806641.0
16	14	44	39	771	159.0	-359309.0	-55790.0	-5807492.0
16	14	44	39	772	160.0	-334544.0	-54685.0	-5807186.0
16	14	44	39	772	161.0	-323796.0	-53206.0	-5806646.0
16	14	44	39	772	162.0	-319932.0	-52109.0	-5807297.0
16	14	44	39	772	163.0	-329638.0	-51029.0	-5807898.0
16	14	44	39	773	164.0	-348705.0	-49466.0	-5807201.0
16	14	44	39	773	165.0	-377927.0	-48534.0	-5806616.0
16	14	44	39	773	166.0	-415068.0	-47496.0	-5806294.0
16	14	44	39	773	167.0	-437872.0	-45998.0	-5807114.0
16	14	44	39	774	168.0	-456411.0	-45717.0	-5806736.0
16	14	44	39	774	169.0	-461023.0	-45815.0	-5806172.0
16	14	44	39	774	170.0	-490654.0	-46494.0	-5806782.0
16	14	44	39	774	171.0	-521715.0	-46312.0	-5807596.0
16	14	44	39	775	172.0	-546507.0	-45280.0	-5806952.0
16	14	44	39	775	173.0	-579442.0	-45374.0	-5806430.0
16	14	44	39	775	174.0	-643690.0	-45071.0	-5807155.0
16	14	44	39	775	175.0	-671593.0	-44827.0	-5807864.0
16	14	44	39	776	176.0	-674765.0	-44652.0	-5807187.0
16	14	44	39	776	177.0	-673817.0	-44954.0	-5806577.0
16	14	44	39	776	178.0	-672798.0	-45301.0	-5806062.0
16	14	44	39	776	179.0	-691035.0	-45080.0	-5807129.0
16	14	44	39	777	180.0	-737507.0	-44734.0	-5807191.0
16	14	44	39	777	181.0	-758893.0	-43972.0	-5806582.0
16	14	44	39	777	182.0	-794113.0	-44422.0	-5806015.0
16	14	44	39	778	183.0	-835779.0	-45050.0	-5806729.0
16	14	44	39	778	184.0	-880310.0	-45928.0	-5806805.0
16	14	44	39	855	185.0	-923120.0	-46693.0	-5806222.0
16	14	44	39	856	186.0	-897987.0	-47174.0	-5805910.0
16	14	44	39	856	187.0	-886804.0	-46473.0	-5807126.0
16	14	44	39	856	188.0	-889912.0	-47147.0	-5806907.0
16	14	44	39	857	189.0	-885379.0	-47679.0	-5806299.0
16	14	44	39	857	190.0	-835007.0	-48260.0	-5806116.0
16	14	44	39	857	191.0	-807638.0	-49247.0	-5807372.0
16	14	44	39	857	192.0	-797196.0	-50601.0	-5807061.0
16	14	44	39	858	193.0	-764459.0	-51546.0	-5806462.0
