16	15	15	47	724	72.0	-14934.0	-30314.0	-5602617.0
16	15	15	47	725	73.0	-15279.0	-31323.0	-5603229.0
16	15	15	47	726	74.0	-5370.0	-32101.0	-5602459.0
16	15	15	47	727	75.0	7879.0	-32894.0	-5602024.0
16	15	15	47	727	76.0	20113.0	-33719.0	-5603402.0
16	15	15	47	754	77.0	30509.0	-35463.0	-5603207.0
16	15	15	47	755	78.0	38523.0	-37409.0	-5602366.0
16	15	15	47	756	79.0	43098.0	-37211.0	-5602024.0
16	15	15	47	756	80.0	50521.0	-36272.0	-5603592.0
16	15	15	47	756	81.0	60543.0	-37931.0	-5603405.0
16	15	15	47	757	82.0	77061.0	-38506.0	-5602571.0
16	15	15	47	757	83.0	90212.0	-37956.0	-5602106.0
16	15	15	47	758	84.0	105976.0	-38699.0	-5603504.0
16	15	15	47	758	85.0	109318.0	-40637.0	-5603421.0
16	15	15	47	759	86.0	116893.0	-40696.0	-5602555.0
16	15	15	47	759	87.0	124669.0	-40606.0	-5602404.0
16	15	15	47	759	88.0	129515.0	-41906.0	-5603926.0
16	15	15	47	760	89.0	127108.0	-43731.0	-5603662.0
16	15	15	47	760	90.0	110641.0	-42407.0	-5602761.0
16	15	15	47	761	91.0	97585.0	-42361.0	-5602752.0
16	15	15	47	761	92.0	77989.0	-44514.0	-5604165.0
16	15	15	47	762	93.0	59489.0	-45291.0	-5603782.0
16	15	15	47	762	94.0	42423.0	-44283.0	-5602873.0
16	15	15	47	793	95.0	28493.0	-44364.0	-5603074.0
16	15	15	47	833	96.0	22855.0	-46540.0	-5604318.0
16	15	15	47	834	97.0	16273.0	-46627.0	-5603793.0
16	15	15	47	834	98.0	14045.0	-45388.0	-5602886.0
16	15	15	47	834	99.0	14621.0	-44910.0	-5602696.0
16	15	15	47	835	100.0	14658.0	-44751.0	-5603989.0
16	15	15	47	835	101.0	6026.0	-45079.0	-5603695.0
16	15	15	47	835	102.0	-5879.0	-44967.0	-5602792.0
16	15	15	47	835	103.0	-18021.0	-45215.0	-5602731.0
16	15	15	47	836	104.0	-20014.0	-45101.0	-5603984.0
16	15	15	47	836	105.0	-18587.0	-44436.0	-5603564.0
16	15	15	47	836	106.0	-19867.0	-44373.0	-5602717.0
16	15	15	47	836	107.0	-20844.0	-44899.0	-5603444.0
16	15	15	47	836	108.0	-18351.0	-44644.0	-5604174.0
16	15	15	47	837	109.0	-13195.0	-44090.0	-5603445.0
16	15	15	47	853	110.0	-6231.0	-43562.0	-5602568.0
16	15	15	47	853	128.0	20509.0	-33831.0	-5604447.0
16	15	15	47	853	129.0	29656.0	-33773.0	-5603562.0
16	15	15	47	853	130.0	37925.0	-34777.0	-5602902.0
16	15	15	47	853	131.0	47657.0	-34626.0	-5604056.0
16	15	15	47	854	132.0	56073.0	-34081.0	-5604404.0
16	15	15	47	854	133.0	67787.0	-33462.0	-5603521.0
16	15	15	47	854	134.0	75741.0	-33232.0	-5603049.0
16	15	15	47	873	135.0	75077.0	-32603.0	-5604232.0
16	15	15	47	873	136.0	70529.0	-31411.0	-5604232.0
16	15	15	47	874	137.0	67850.0	-28874.0	-5603314.0
16	15	15	47	874	138.0	69184.0	-27715.0	-5603019.0
16	15	15	47	892	139.0	71478.0	-26703.0	-5604362.0
16	15	15	47	893	140.0	69823.0	-25488.0	-5604187.0
16	15	15	47	893	141.0	64651.0	-24774.0	-5603292.0
16	15	15	47	893	142.0	56999.0	-23689.0	-5603354.0
16	15	15	47	893	143.0	50578.0	-22732.0	-5604682.0
16	15	15	47	894	144.0	47008.0	-22881.0	-5604239.0
16	15	15	47	894	145.0	47247.0	-22624.0	-5603350.0
16	15	15	47	894	146.0	46314.0	-21478.0	-5603844.0
16	15	15	47	894	147.0	46304.0	-20938.0	-5604823.0
16	15	15	47	895	148.0	38778.0	-20312.0	-5604182.0
16	15	15	47	895	149.0	27684.0	-19921.0	-5603279.0
16	15	15	47	895	151.0	-10791.0	-17671.0	-5604405.0
16	15	15	47	895	152.0	-32038.0	-19011.0	-5603834.0
16	15	15	47	895	153.0	-51999.0	-19851.0	-5602959.0
16	15	15	47	896	154.0	-66537.0	-20055.0	-5603514.0
16	15	15	47	896	155.0	-75166.0	-19767.0	-5604366.0
16	15	15	47	896	156.0	-73782.0	-19267.0	-5603676.0
16	15	15	47	916	157.0	-76311.0	-18957.0	-5602980.0
16	15	15	47	917	158.0	-77040.0	-18209.0	-5604169.0
16	15	15	47	930	159.0	-79380.0	-16513.0	-5604397.0
16	15	15	47	931	160.0	-74592.0	-15136.0	-5603615.0
16	15	15	47	931	161.0	-64960.0	-14221.0	-5602963.0
16	15	15	47	931	162.0	-52482.0	-13323.0	-5604216.0
16	15	15	47	931	163.0	-38057.0	-13044.0	-5604466.0
16	15	15	47	932	164.0	-21362.0	-12733.0	-5603627.0
16	15	15	47	932	165.0	233.0	-12475.0	-5603110.0
16	15	15	47	932	166.0	18169.0	-11559.0	-5604542.0
16	15	15	47	932	167.0	34521.0	-11061.0	-5604582.0
16	15	15	47	933	168.0	47096.0	-10952.0	-5603735.0
16	15	15	47	933	169.0	52111.0	-11051.0	-5603244.0
16	15	15	47	933	170.0	51991.0	-10939.0	-5604542.0
16	15	15	47	933	171.0	50683.0	-10123.0	-5604597.0
16	15	15	47	934	173.0	52613.0	-9373.0	-5603744.0
16	15	15	47	934	174.0	49908.0	-9742.0	-5604887.0
16	15	15	47	934	175.0	47669.0	-11680.0	-5604372.0
16	15	15	47	934	176.0	49906.0	-12041.0	-5603515.0
16	15	15	47	934	177.0	51279.0	-12087.0	-5603918.0
16	15	15	47	934	178.0	54033.0	-12076.0	-5604873.0
16	15	15	47	935	179.0	53647.0	-12221.0	-5604197.0
16	15	15	47	963	180.0	55928.0	-11944.0	-5603301.0
16	15	15	47	963	181.0	56479.0	-11335.0	-5603580.0
16	15	15	47	963	182.0	61503.0	-9319.0	-5604617.0
16	15	15	47	977	183.0	64079.0	-8586.0	-5604013.0
16	15	15	47	977	184.0	66484.0	-8071.0	-5603157.0
16	15	15	47	977	185.0	67146.0	-8232.0	-5603973.0
16	15	15	47	978	186.0	63181.0	-7511.0	-5604792.0
16	15	15	47	978	187.0	62369.0	-6987.0	-5604077.0
16	15	15	47	978	188.0	58304.0	-6885.0	-5603323.0
16	15	15	47	979	189.0	58036.0	-6977.0	-5604434.0
16	15	15	47	979	190.0	49739.0	-6865.0	-5604790.0
16	15	15	47	979	191.0	49272.0	-6796.0	-5604026.0
16	15	15	47	979	192.0	43474.0	-6749.0	-5603306.0
16	15	15	47	980	193.0	34751.0	-6405.0	-5604532.0
16	15	15	47	980	194.0	26687.0	-6274.0	-5604717.0
16	15	15	47	980	196.0	12274.0	-6046.0	-5603158.0
16	15	15	47	981	197.0	10743.0	-7340.0	-5603952.0
16	15	15	47	981	198.0	11873.0	-8726.0	-5604002.0
16	15	15	47	981	199.0	9551.0	-8773.0	-5603254.0
16	15	15	47	982	200.0	8661.0	-8726.0	-5603649.0
16	15	15	47	982	201.0	6829.0	-8426.0	-5604498.0
16	15	15	48	8	202.0	-3244.0	-8187.0	-5603674.0
16	15	15	48	8	203.0	-16966.0	-8071.0	-5603193.0
16	15	15	48	9	204.0	-34269.0	-6257.0	-5604458.0
16	15	15	48	27	205.0	-55866.0	-5426.0	-5604526.0
16	15	15	48	27	206.0	-75967.0	-5301.0	-5603625.0
16	15	15	48	27	207.0	-89262.0	-4489.0	-5603335.0
16	15	15	48	28	208.0	-97291.0	-4512.0	-5604706.0
16	15	15	48	28	209.0	-105022.0	-4575.0	-5604534.0
16	15	15	48	28	210.0	-113468.0	-4175.0	-5603616.0
16	15	15	48	28	211.0	-115944.0	-3564.0	-5603069.0
16	15	15	48	29	212.0	-115557.0	-3157.0	-5604427.0
16	15	15	48	29	213.0	-109854.0	-2835.0	-5604644.0
16	15	15	48	29	214.0	-106987.0	-2745.0	-5603781.0
16	15	15	48	29	215.0	-105138.0	-2674.0	-5603451.0
16	15	15	48	30	216.0	-98067.0	-2490.0	-5604994.0
16	15	15	48	30	218.0	-73669.0	-1967.0	-5603967.0
16	15	15	48	30	219.0	-61420.0	-2122.0	-5603807.0
16	15	15	48	31	220.0	-54265.0	-3544.0	-5605019.0
16	15	15	48	31	221.0	-50461.0	-4176.0	-5604546.0
16	15	15	48	31	222.0	-51849.0	-4437.0	-5603720.0
16	15	15	48	32	223.0	-51461.0	-4470.0	-5603960.0
16	15	15	48	32	224.0	-44156.0	-4413.0	-5605136.0
16	15	15	48	54	225.0	-35439.0	-4234.0	-5604483.0
16	15	15	48	54	226.0	-25178.0	-3000.0	-5603647.0
16	15	15	48	54	227.0	-10092.0	-969.0	-5603359.0
16	15	15	48	78	228.0	4482.0	669.0	-5604241.0
16	15	15	48	78	229.0	17355.0	857.0	-5603670.0
16	15	15	48	78	230.0	27968.0	1268.0	-5603260.0
16	15	15	48	79	231.0	35886.0	1717.0	-5604646.0
16	15	15	48	79	232.0	32527.0	2175.0	-5604559.0
16	15	15	48	79	233.0	27782.0	2321.0	-5603652.0
16	15	15	48	79	234.0	25178.0	2873.0	-5603504.0
16	15	15	48	80	235.0	27891.0	2913.0	-5605062.0
16	15	15	48	80	236.0	33168.0	3346.0	-5604787.0
16	15	15	48	80	237.0	36615.0	3705.0	-5603922.0
16	15	15	48	80	238.0	41791.0	3888.0	-5604277.0
16	15	15	48	80	239.0	37858.0	4373.0	-5605147.0
16	15	15	48	81	241.0	30278.0	4546.0	-5603629.0
16	15	15	48	81	242.0	28014.0	2921.0	-5604093.0
16	15	15	48	81	243.0	31723.0	2139.0	-5605031.0
16	15	15	48	82	244.0	37662.0	2052.0	-5604379.0
16	15	15	48	82	245.0	42764.0	1554.0	-5603502.0
16	15	15	48	82	246.0	42666.0	1528.0	-5604094.0
16	15	15	48	102	247.0	42201.0	1956.0	-5604933.0
16	15	15	48	102	248.0	36433.0	2371.0	-5604259.0
16	15	15	48	102	249.0	35546.0	3707.0	-5603414.0
16	15	15	48	103	250.0	35119.0	4904.0	-5604123.0
16	15	15	48	103	251.0	33809.0	5483.0	-5604837.0
16	15	15	48	103	252.0	24563.0	5978.0	-5604134.0
16	15	15	48	104	253.0	12851.0	6662.0	-5603549.0
16	15	15	48	104	254.0	8669.0	7148.0	-5604852.0
16	15	15	48	104	255.0	186.0	7293.0	-5604778.0
16	15	15	48	105	0.0	-9033.0	7845.0	-5603990.0
16	15	15	48	127	1.0	-19101.0	8086.0	-5603584.0
16	15	15	48	127	2.0	-24776.0	8157.0	-5604998.0
16	15	15	48	128	3.0	-27236.0	8748.0	-5604667.0
16	15	15	48	128	4.0	-29651.0	8821.0	-5603832.0
16	15	15	48	128	5.0	-47444.0	8784.0	-5603482.0
16	15	15	48	128	7.0	-90729.0	9022.0	-5604734.0
16	15	15	48	129	8.0	-110711.0	8288.0	-5603904.0
16	15	15	48	152	9.0	-113157.0	6641.0	-5603641.0
16	15	15	48	153	10.0	-111739.0	6401.0	-5604967.0
16	15	15	48	153	11.0	-104049.0	6719.0	-5604625.0
16	15	15	48	153	12.0	-84667.0	6817.0	-5603806.0
16	15	15	48	153	13.0	-64709.0	7112.0	-5603949.0
16	15	15	48	154	14.0	-52920.0	8809.0	-5605199.0
16	15	15	48	154	15.0	-45223.0	9837.0	-5604605.0
16	15	15	48	154	16.0	-36696.0	10149.0	-5603753.0
16	15	15	48	154	17.0	-22946.0	10723.0	-5604102.0
16	15	15	48	155	18.0	-2548.0	10506.0	-5604974.0
16	15	15	48	155	19.0	26505.0	10724.0	-5604239.0
16	15	15	48	155	20.0	63551.0	10416.0	-5603362.0
16	15	15	48	155	21.0	105316.0	10328.0	-5603932.0
16	15	15	48	155	22.0	144885.0	10586.0	-5604763.0
16	15	15	48	156	23.0	182308.0	10651.0	-5604073.0
16	15	15	48	156	30.0	-666465.0	11883.0	-5604792.0
16	15	15	48	156	31.0	-874226.0	10079.0	-5604022.0
16	15	15	48	156	32.0	-881531.0	9623.0	-5603450.0
16	15	15	48	178	33.0	-726006.0	9207.0	-5604434.0
16	15	15	48	178	34.0	-469307.0	9048.0	-5604173.0
16	15	15	48	178	35.0	-158548.0	9096.0	-5603502.0
16	15	15	48	204	36.0	156174.0	8975.0	-5604289.0
16	15	15	48	205	37.0	415922.0	9473.0	-5605061.0
16	15	15	48	205	38.0	588481.0	11598.0	-5604197.0
16	15	15	48	205	39.0	666813.0	12478.0	-5603511.0
16	15	15	48	206	40.0	639345.0	12639.0	-5604476.0
16	15	15	48	206	41.0	508963.0	13209.0	-5605134.0
16	15	15	48	206	42.0	262209.0	12898.0	-5604254.0
16	15	15	48	207	43.0	-70475.0	12725.0	-5603815.0
16	15	15	48	207	44.0	-374081.0	13488.0	-5604988.0
16	15	15	48	207	45.0	-532492.0	13644.0	-5604897.0
16	15	15	48	207	46.0	-472589.0	13659.0	-5604006.0
16	15	15	48	207	47.0	-301717.0	14091.0	-5603714.0
16	15	15	48	232	48.0	-60607.0	14328.0	-5605103.0
16	15	15	48	232	49.0	201138.0	14284.0	-5604930.0
16	15	15	48	259	50.0	327396.0	14623.0	-5604062.0
16	15	15	48	260	52.0	82259.0	14539.0	-5604993.0
16	15	15	48	260	53.0	-77986.0	13805.0	-5604680.0
16	15	15	48	260	54.0	-83835.0	11926.0	-5603834.0
16	15	15	48	260	55.0	27276.0	11356.0	-5603572.0
16	15	15	48	261	56.0	173390.0	11274.0	-5604966.0
16	15	15	48	261	57.0	277790.0	11704.0	-5604592.0
16	15	15	48	261	58.0	331886.0	12826.0	-5603796.0
16	15	15	48	261	59.0	334232.0	13993.0	-5603976.0
16	15	15	48	262	60.0	253711.0	13552.0	-5604755.0
16	15	15	48	262	61.0	122576.0	13828.0	-5604046.0
16	15	15	48	262	62.0	-13117.0	14131.0	-5603962.0
16	15	15	48	262	63.0	-132619.0	14255.0	-5605423.0
16	15	15	48	263	75.0	74326.0	13719.0	-5604941.0
16	15	15	48	263	76.0	36137.0	11674.0	-5604438.0
16	15	15	48	263	77.0	-14011.0	11448.0	-5603582.0
16	15	15	48	263	78.0	-54633.0	11153.0	-5604442.0
16	15	15	48	264	79.0	-81991.0	10835.0	-5605064.0
16	15	15	48	264	80.0	-97251.0	10936.0	-5604326.0
16	15	15	48	288	81.0	-93499.0	10343.0	-5603517.0
16	15	15	48	288	82.0	-70237.0	11018.0	-5604588.0
16	15	15	48	289	83.0	-35805.0	12889.0	-5605120.0
16	15	15	48	289	84.0	-5379.0	13450.0	-5604367.0
16	15	15	48	289	85.0	24744.0	13639.0	-5603581.0
16	15	15	48	289	86.0	92147.0	13572.0	-5604600.0
16	15	15	48	290	87.0	203274.0	13389.0	-5605393.0
16	15	15	48	290	88.0	290486.0	13330.0	-5604636.0
16	15	15	48	290	89.0	274222.0	13504.0	-5603864.0
16	15	15	48	291	90.0	140909.0	13186.0	-5605012.0
16	15	15	48	291	91.0	15214.0	12974.0	-5605427.0
16	15	15	48	291	92.0	-8822.0	13065.0	-5604656.0
16	15	15	48	292	93.0	37133.0	13154.0	-5604168.0
16	15	15	48	292	94.0	103232.0	13059.0	-5605396.0
16	15	15	48	292	95.0	156853.0	13180.0	-5605189.0
16	15	15	48	292	97.0	202404.0	13606.0	-5604232.0
16	15	15	48	293	98.0	150664.0	12184.0	-5605605.0
16	15	15	48	293	99.0	81959.0	10599.0	-5605153.0
16	15	15	48	316	100.0	33678.0	10274.0	-5604302.0
16	15	15	48	316	101.0	12241.0	10584.0	-5604093.0
16	15	15	48	317	102.0	-5379.0	10866.0	-5605466.0
16	15	15	48	345	103.0	-27588.0	11033.0	-5605122.0
16	15	15	48	345	104.0	-44389.0	11571.0	-5604222.0
16	15	15	48	345	105.0	-59750.0	13112.0	-5604416.0
16	15	15	48	346	106.0	-95322.0	14316.0	-5605640.0
16	15	15	48	346	107.0	-141408.0	15489.0	-5605093.0
16	15	15	48	346	108.0	-160839.0	15922.0	-5604326.0
16	15	15	48	347	109.0	-143249.0	16820.0	-5605461.0
16	15	15	48	347	110.0	-97402.0	18331.0	-5606110.0
16	15	15	48	347	111.0	-30507.0	19468.0	-5605341.0
16	15	15	48	347	112.0	32516.0	20668.0	-5604576.0
16	15	15	48	348	113.0	56960.0	21560.0	-5605646.0
16	15	15	48	348	114.0	62962.0	23257.0	-5606221.0
16	15	15	48	348	115.0	74814.0	25431.0	-5605450.0
16	15	15	48	348	116.0	95603.0	27198.0	-5604590.0
16	15	15	48	349	117.0	112068.0	28274.0	-5605408.0
16	15	15	48	349	119.0	117121.0	31944.0	-5605295.0
16	15	15	48	349	120.0	110604.0	33238.0	-5604506.0
16	15	15	48	350	121.0	93177.0	33139.0	-5605642.0
16	15	15	48	350	122.0	84596.0	34434.0	-5606042.0
16	15	15	48	350	123.0	87473.0	36537.0	-5605287.0
16	15	15	48	350	124.0	94321.0	38568.0	-5604727.0
16	15	15	48	351	125.0	116408.0	40522.0	-5605981.0
16	15	15	48	373	126.0	156411.0	42493.0	-5605863.0
16	15	15	48	373	127.0	199320.0	44703.0	-5605087.0
16	15	15	48	374	128.0	193284.0	49252.0	-5605164.0
16	15	15	48	374	129.0	134157.0	52217.0	-5606396.0
16	15	15	48	374	130.0	83708.0	55084.0	-5605701.0
16	15	15	48	374	131.0	76349.0	57838.0	-5604859.0
16	15	15	48	375	132.0	90808.0	60433.0	-5604556.0
16	15	15	48	375	133.0	91526.0	62973.0	-5605885.0
16	15	15	48	400	134.0	65902.0	65503.0	-5605503.0
16	15	15	48	401	135.0	31649.0	67540.0	-5604672.0
16	15	15	48	401	136.0	21695.0	69363.0	-5604408.0
16	15	15	48	401	137.0	17044.0	71199.0	-5605767.0
16	15	15	48	402	138.0	11489.0	73553.0	-5605428.0
16	15	15	48	402	139.0	4718.0	75315.0	-5604732.0
16	15	15	48	402	140.0	-9919.0	77174.0	-5605539.0
16	15	15	48	402	142.0	-60777.0	80385.0	-5605401.0
16	15	15	48	403	143.0	-88034.0	80296.0	-5604627.0
16	15	15	48	403	144.0	-119058.0	79796.0	-5605556.0
16	15	15	48	403	145.0	-119340.0	80447.0	-5606336.0
16	15	15	48	403	146.0	-106374.0	80418.0	-5605557.0
16	15	15	48	403	147.0	-99259.0	80241.0	-5604682.0
16	15	15	48	429	148.0	-91601.0	80479.0	-5605344.0
16	15	15	48	429	149.0	-89396.0	80966.0	-5606328.0
16	15	15	48	429	150.0	-84094.0	82954.0	-5605662.0
16	15	15	48	430	151.0	-77319.0	84256.0	-5604804.0
16	15	15	48	430	152.0	-74715.0	83726.0	-5605629.0
16	15	15	48	430	153.0	-74149.0	82898.0	-5606797.0
16	15	15	48	430	154.0	-73692.0	82053.0	-5606143.0
16	15	15	48	430	155.0	-65572.0	80876.0	-5605294.0
16	15	15	48	431	156.0	-54969.0	79855.0	-5605892.0
16	15	15	48	431	157.0	-45887.0	78612.0	-5606774.0
16	15	15	48	431	158.0	-26146.0	77035.0	-5606106.0
16	15	15	48	432	159.0	-59.0	75649.0	-5605383.0
16	15	15	48	432	160.0	21635.0	73878.0	-5606574.0
16	15	15	48	432	161.0	43895.0	71851.0	-5606771.0
16	15	15	48	432	162.0	64259.0	70014.0	-5605968.0
16	15	15	48	433	164.0	103004.0	66088.0	-5606381.0
16	15	15	48	433	165.0	126840.0	63456.0	-5606848.0
16	15	15	48	433	166.0	150870.0	59100.0	-5606059.0
16	15	15	48	433	167.0	173163.0	56410.0	-5605256.0
16	15	15	48	434	168.0	186151.0	53490.0	-5605900.0
16	15	15	48	434	169.0	193536.0	51212.0	-5606196.0
16	15	15	48	434	170.0	203004.0	48794.0	-5605524.0
16	15	15	48	458	171.0	195244.0	46183.0	-5606265.0
16	15	15	48	458	172.0	187737.0	44224.0	-5606947.0
16	15	15	48	458	173.0	178598.0	43981.0	-5606065.0
16	15	15	48	459	174.0	151508.0	41950.0	-5605359.0
16	15	15	48	459	175.0	118500.0	40279.0	-5606224.0
16	15	15	48	460	176.0	55561.0	38080.0	-5606812.0
16	15	15	48	486	177.0	-79869.0	35425.0	-5605932.0
16	15	15	48	486	178.0	-286407.0	32829.0	-5605244.0
16	15	15	48	487	179.0	-381748.0	29913.0	-5606269.0
16	15	15	48	487	180.0	-173255.0	27514.0	-5606716.0
16	15	15	48	487	181.0	182241.0	25213.0	-5605918.0
16	15	15	48	488	182.0	461696.0	23117.0	-5605290.0
16	15	15	48	488	183.0	571799.0	20573.0	-5606519.0
16	15	15	48	488	184.0	480335.0	17916.0	-5607021.0
16	15	15	48	488	185.0	292841.0	15381.0	-5606176.0
16	15	15	48	489	187.0	66228.0	10603.0	-5607000.0
16	15	15	48	489	188.0	47849.0	6988.0	-5607002.0
16	15	15	48	489	189.0	13183.0	3538.0	-5606160.0
16	15	15	48	490	190.0	-46263.0	1469.0	-5605935.0
16	15	15	48	490	191.0	-101509.0	-779.0	-5607501.0
16	15	15	48	490	192.0	-157204.0	-2797.0	-5607169.0
16	15	15	48	513	193.0	-200330.0	-4527.0	-5606341.0
16	15	15	48	514	194.0	-254422.0	-6493.0	-5606027.0
16	15	15	48	514	195.0	-289154.0	-6766.0	-5607341.0
16	15	15	48	514	196.0	-243675.0	-8053.0	-5606925.0
16	15	15	48	515	197.0	-142097.0	-9746.0	-5606136.0
16	15	15	48	515	198.0	-74848.0	-10726.0	-5605866.0
16	15	15	48	515	199.0	-50397.0	-12273.0	-5607347.0
16	15	15	48	515	200.0	-35814.0	-14262.0	-5606974.0
16	15	15	48	516	201.0	-43487.0	-15623.0	-5606229.0
16	15	15	48	516	202.0	-47824.0	-16804.0	-5605717.0
16	15	15	48	516	203.0	-39399.0	-17421.0	-5606544.0
16	15	15	48	517	204.0	-15045.0	-18467.0	-5606138.0
16	15	15	48	517	205.0	8239.0	-20043.0	-5605819.0
16	15	15	48	517	206.0	15448.0	-21356.0	-5607147.0
16	15	15	48	517	207.0	-5042.0	-22593.0	-5606932.0
16	15	15	48	518	209.0	-73682.0	-24449.0	-5606080.0
16	15	15	48	518	210.0	-85691.0	-25562.0	-5607294.0
16	15	15	48	518	211.0	-83042.0	-28100.0	-5606810.0
16	15	15	48	518	212.0	-77455.0	-29599.0	-5605892.0
16	15	15	48	519	213.0	-74007.0	-30704.0	-5605718.0
16	15	15	48	540	214.0	-75725.0	-31591.0	-5607011.0
16	15	15	48	540	215.0	-76662.0	-32367.0	-5606733.0
16	15	15	48	567	216.0	-71188.0	-33333.0	-5605824.0
16	15	15	48	568	217.0	-54775.0	-33996.0	-5605866.0
16	15	15	48	568	218.0	-34259.0	-32914.0	-5607067.0
16	15	15	48	568	219.0	-20007.0	-33199.0	-5606620.0
16	15	15	48	569	220.0	-7400.0	-33718.0	-5605777.0
16	15	15	48	569	221.0	292.0	-34342.0	-5606542.0
16	15	15	48	569	222.0	2400.0	-35266.0	-5607327.0
16	15	15	48	569	223.0	7580.0	-35851.0	-5606631.0
16	15	15	48	570	224.0	22790.0	-36064.0	-5605792.0
16	15	15	48	570	225.0	53229.0	-36955.0	-5606546.0
16	15	15	48	570	226.0	85001.0	-37056.0	-5607093.0
16	15	15	48	571	227.0	107253.0	-37502.0	-5606286.0
16	15	15	48	571	228.0	125161.0	-38543.0	-5605472.0
16	15	15	48	571	229.0	139532.0	-39918.0	-5605796.0
16	15	15	48	571	230.0	145495.0	-40605.0	-5606019.0
16	15	15	48	572	232.0	157428.0	-41865.0	-5605651.0
16	15	15	48	572	233.0	164518.0	-44407.0	-5606730.0
16	15	15	48	572	234.0	165124.0	-46113.0	-5606008.0
16	15	15	48	573	235.0	162654.0	-47262.0	-5605446.0
16	15	15	48	573	236.0	157419.0	-47710.0	-5606676.0
16	15	15	48	573	237.0	146854.0	-48821.0	-5607050.0
16	15	15	48	595	238.0	130760.0	-49487.0	-5606172.0
16	15	15	48	595	239.0	110329.0	-49529.0	-5605638.0
16	15	15	48	595	240.0	84827.0	-47604.0	-5606898.0
16	15	15	48	596	241.0	59750.0	-47183.0	-5607051.0
16	15	15	48	596	242.0	41408.0	-46974.0	-5606167.0
16	15	15	48	596	243.0	34904.0	-46081.0	-5605417.0
16	15	15	48	597	244.0	30992.0	-45814.0	-5606442.0
16	15	15	48	622	245.0	30709.0	-45814.0	-5607041.0
16	15	15	48	623	246.0	24932.0	-46075.0	-5606263.0
16	15	15	48	623	247.0	13089.0	-46221.0	-5605614.0
16	15	15	48	623	248.0	3914.0	-45872.0	-5606876.0
16	15	15	48	624	249.0	2248.0	-45538.0	-5607147.0
16	15	15	48	624	250.0	5381.0	-44497.0	-5606316.0
16	15	15	48	624	251.0	12013.0	-44346.0	-5605882.0
16	15	15	48	625	252.0	12681.0	-44694.0	-5607441.0
16	15	15	48	625	254.0	66004.0	-44386.0	-5606500.0
16	15	15	48	625	255.0	102691.0	-45264.0	-5605761.0
16	15	15	48	625	0.0	95863.0	-46221.0	-5606917.0
16	15	15	48	626	1.0	51581.0	-46155.0	-5607126.0
16	15	15	48	626	2.0	-17272.0	-46335.0	-5606347.0
16	15	15	48	626	3.0	-80676.0	-45901.0	-5605684.0
16	15	15	48	627	4.0	-127599.0	-45301.0	-5607076.0
16	15	15	48	650	5.0	-156529.0	-44744.0	-5607177.0
16	15	15	48	651	6.0	-170661.0	-43326.0	-5606402.0
16	15	15	48	651	7.0	-159076.0	-40964.0	-5605716.0
16	15	15	48	651	8.0	-124402.0	-39916.0	-5606350.0
16	15	15	48	652	9.0	-76618.0	-38786.0	-5606031.0
16	15	15	48	652	10.0	-27868.0	-37979.0	-5605629.0
16	15	15	48	652	11.0	18293.0	-37231.0	-5606916.0
16	15	15	48	652	12.0	53251.0	-36647.0	-5606824.0
16	15	15	48	653	13.0	76116.0	-35937.0	-5605894.0
16	15	15	48	653	14.0	89136.0	-34877.0	-5605641.0
16	15	15	48	653	15.0	100890.0	-34201.0	-5606656.0
16	15	15	48	653	16.0	111199.0	-33201.0	-5606300.0
16	15	15	48	654	17.0	111076.0	-32541.0	-5605380.0
16	15	15	48	654	18.0	103284.0	-31538.0	-5605416.0
16	15	15	48	654	19.0	96078.0	-30699.0	-5606609.0
16	15	15	48	655	21.0	87233.0	-29303.0	-5605254.0
16	15	15	48	655	22.0	88171.0	-30044.0	-5605308.0
16	15	15	48	655	23.0	88798.0	-30221.0	-5606614.0
16	15	15	48	655	24.0	84213.0	-29833.0	-5606132.0
16	15	15	48	656	25.0	85467.0	-28854.0	-5605234.0
16	15	15	48	656	26.0	85328.0	-28337.0	-5605114.0
16	15	15	48	682	27.0	82928.0	-27977.0	-5606319.0
16	15	15	48	682	28.0	77644.0	-27035.0	-5605877.0
16	15	15	48	709	29.0	70358.0	-24808.0	-5605038.0
16	15	15	48	709	30.0	69838.0	-23030.0	-5605691.0
16	15	15	48	709	31.0	68269.0	-21977.0	-5606469.0
16	15	15	48	710	32.0	66401.0	-21249.0	-5605705.0
16	15	15	48	710	33.0	62560.0	-20283.0	-5604887.0
16	15	15	48	710	34.0	55431.0	-19017.0	-5605133.0
16	15	15	48	710	35.0	40996.0	-18150.0	-5605701.0
16	15	15	48	711	36.0	23480.0	-17216.0	-5604971.0
16	15	15	48	711	37.0	7904.0	-16767.0	-5604871.0
16	15	15	48	711	38.0	-1721.0	-16396.0	-5606345.0
16	15	15	48	712	39.0	-2959.0	-15851.0	-5605936.0
16	15	15	48	712	40.0	-8927.0	-15127.0	-5605103.0
16	15	15	48	712	41.0	-9087.0	-14416.0	-5605072.0
16	15	15	48	713	43.0	-8187.0	-13789.0	-5605697.0
16	15	15	48	713	44.0	-726.0	-14127.0	-5604878.0
16	15	15	48	713	45.0	3592.0	-15183.0	-5605416.0
16	15	15	48	713	46.0	-76.0	-15007.0	-5606304.0
16	15	15	48	714	47.0	-14355.0	-14836.0	-5605592.0
16	15	15	48	714	48.0	-23257.0	-14464.0	-5604739.0
16	15	15	48	714	49.0	-29137.0	-14545.0	-5605392.0
16	15	15	48	738	50.0	-30135.0	-14687.0	-5606358.0
16	15	15	48	739	51.0	-34774.0	-13476.0	-5605639.0
16	15	15	48	739	52.0	-38217.0	-11447.0	-5604797.0
16	15	15	48	739	53.0	-40791.0	-10722.0	-5605681.0
16	15	15	48	740	54.0	-40063.0	-10486.0	-5606316.0
16	15	15	48	740	55.0	-32846.0	-9536.0	-5605577.0
16	15	15	48	740	56.0	-29251.0	-9155.0	-5604726.0
16	15	15	48	740	57.0	-27094.0	-9051.0	-5605485.0
16	15	15	48	741	58.0	-25496.0	-8351.0	-5606246.0
16	15	15	48	741	59.0	-17840.0	-8259.0	-5605525.0
16	15	15	48	741	60.0	-12121.0	-8358.0	-5604884.0
16	15	15	48	742	61.0	-5302.0	-8264.0	-5606091.0
16	15	15	48	742	62.0	1586.0	-8230.0	-5606107.0
16	15	15	48	742	63.0	5117.0	-8414.0	-5605307.0
16	15	15	48	743	64.0	5237.0	-8221.0	-5604928.0
16	15	15	48	743	66.0	-1733.0	-8297.0	-5606260.0
16	15	15	48	743	67.0	-8151.0	-10057.0	-5605421.0
16	15	15	48	744	68.0	-9328.0	-10713.0	-5604958.0
16	15	15	48	744	69.0	-5536.0	-10807.0	-5606361.0
16	15	15	48	765	70.0	2761.0	-10743.0	-5606209.0
16	15	15	48	765	71.0	16710.0	-10881.0	-5605376.0
16	15	15	48	793	72.0	27501.0	-11173.0	-5605117.0
16	15	15	48	793	73.0	36292.0	-10649.0	-5606573.0
16	15	15	48	794	74.0	50125.0	-8712.0	-5606232.0
16	15	15	48	794	75.0	64776.0	-7767.0	-5605426.0
16	15	15	48	794	76.0	72760.0	-7109.0	-5605618.0
16	15	15	48	795	77.0	70988.0	-7243.0	-5606724.0
16	15	15	48	795	78.0	60301.0	-7196.0	-5606055.0
16	15	15	48	795	79.0	48258.0	-6836.0	-5605291.0
16	15	15	48	796	80.0	36289.0	-6634.0	-5605946.0
16	15	15	48	796	81.0	26306.0	-7072.0	-5606786.0
16	15	15	48	796	82.0	17231.0	-7161.0	-5605972.0
16	15	15	48	796	83.0	5998.0	-7010.0	-5605169.0
16	15	15	48	797	84.0	1368.0	-6486.0	-5606040.0
16	15	15	48	797	85.0	-991.0	-6289.0	-5606752.0
16	15	15	48	797	86.0	-1076.0	-6055.0	-5605974.0
16	15	15	48	798	88.0	7733.0	-5414.0	-5606020.0
16	15	15	48	798	89.0	6734.0	-6465.0	-5606957.0
16	15	15	48	798	90.0	-2851.0	-8067.0	-5606261.0
16	15	15	48	798	91.0	-20237.0	-8348.0	-5605651.0
16	15	15	48	799	92.0	-30431.0	-8386.0	-5606813.0
16	15	15	48	799	93.0	-33997.0	-8233.0	-5606837.0
16	15	15	48	799	94.0	-32608.0	-8479.0	-5606000.0
16	15	15	48	821	95.0	-30254.0	-8342.0	-5605829.0
16	15	15	48	821	96.0	-30791.0	-6859.0	-5607339.0
16	15	15	48	822	97.0	-20644.0	-4692.0	-5606892.0
16	15	15	48	822	98.0	-11293.0	-4009.0	-5606081.0
16	15	15	48	822	99.0	-6216.0	-3813.0	-5605568.0
16	15	15	48	822	100.0	-8617.0	-3458.0	-5606694.0
16	15	15	48	823	101.0	-14826.0	-3115.0	-5606348.0
16	15	15	48	823	102.0	-16676.0	-2731.0	-5605678.0
16	15	15	48	824	103.0	-13532.0	-2605.0	-5606578.0
16	15	15	48	824	104.0	-7994.0	-2307.0	-5607201.0
16	15	15	48	824	105.0	4486.0	-1881.0	-5606334.0
16	15	15	48	825	106.0	20377.0	-1340.0	-5605753.0
16	15	15	48	862	107.0	35026.0	-1398.0	-5606746.0
16	15	15	48	878	108.0	38866.0	-1537.0	-5606988.0
16	15	15	48	879	109.0	39385.0	-1292.0	-5606044.0
16	15	15	48	879	111.0	31899.0	-1528.0	-5607039.0
16	15	15	48	879	112.0	30762.0	-2460.0	-5606840.0
16	15	15	48	880	113.0	29914.0	-2743.0	-5605917.0
16	15	15	48	880	114.0	38603.0	-2622.0	-5605591.0
16	15	15	48	881	115.0	45828.0	-2164.0	-5606744.0
16	15	15	48	881	116.0	43088.0	-512.0	-5606514.0
16	15	15	48	881	117.0	38161.0	590.0	-5605619.0
16	15	15	48	882	118.0	32845.0	1043.0	-5605386.0
16	15	15	48	882	119.0	28529.0	728.0	-5606726.0
16	15	15	48	882	120.0	24771.0	1666.0	-5606374.0
16	15	15	48	882	121.0	20973.0	2012.0	-5605510.0
16	15	15	48	883	122.0	21909.0	2501.0	-5605430.0
16	15	15	48	883	133.0	-29311.0	4790.0	-5605332.0
16	15	15	48	883	134.0	-30717.0	3899.0	-5605392.0
16	15	15	48	884	135.0	-29719.0	2913.0	-5605966.0
16	15	15	48	884	136.0	-31462.0	2828.0	-5605266.0
16	15	15	48	884	137.0	-40722.0	2666.0	-5605602.0
16	15	15	48	885	138.0	-47731.0	2449.0	-5606829.0
16	15	15	48	907	139.0	-49892.0	2500.0	-5606186.0
16	15	15	48	949	140.0	-51475.0	2568.0	-5605396.0
16	15	15	48	949	141.0	-51886.0	4417.0	-5605918.0
16	15	15	48	949	142.0	-58050.0	5052.0	-5606887.0
16	15	15	48	950	143.0	-68686.0	6145.0	-5606117.0
16	15	15	48	950	144.0	-86963.0	6173.0	-5605386.0
16	15	15	48	950	145.0	-99807.0	6698.0	-5606383.0
16	15	15	48	951	146.0	-103839.0	7113.0	-5606957.0
16	15	15	48	951	147.0	-104832.0	7964.0	-5606145.0
16	15	15	48	952	148.0	-100178.0	8205.0	-5605331.0
16	15	15	48	952	149.0	-92518.0	8889.0	-5606076.0
16	15	15	48	952	150.0	-77447.0	8686.0	-5606875.0
16	15	15	48	952	151.0	-54074.0	9346.0	-5606167.0
16	15	15	48	953	152.0	-19514.0	9316.0	-5605331.0
16	15	15	48	953	153.0	20004.0	8966.0	-5606201.0
16	15	15	48	953	155.0	93513.0	9894.0	-5606105.0
16	15	15	48	953	156.0	126959.0	9559.0	-5605451.0
16	15	15	48	954	157.0	155511.0	7947.0	-5606769.0
16	15	15	48	954	158.0	180266.0	7279.0	-5606861.0
16	15	15	48	954	159.0	192794.0	6905.0	-5606087.0
16	15	15	48	954	160.0	190303.0	6533.0	-5605607.0
16	15	15	48	954	161.0	182452.0	6431.0	-5606567.0
16	15	15	48	991	162.0	170112.0	6764.0	-5606164.0
16	15	15	48	991	163.0	157055.0	7624.0	-5605426.0
16	15	15	48	992	164.0	144215.0	9541.0	-5606137.0
16	15	15	48	992	165.0	135525.0	10508.0	-5606652.0
16	15	15	48	992	166.0	112616.0	10696.0	-5605795.0
16	15	15	49	35	167.0	51874.0	11331.0	-5605191.0
16	15	15	49	88	168.0	-69836.0	11112.0	-5606205.0
16	15	15	49	89	169.0	-320951.0	11056.0	-5606656.0
16	15	15	49	91	170.0	-619232.0	11662.0	-5605736.0
16	15	15	49	92	171.0	-786419.0	11371.0	-5605376.0
16	15	15	49	94	172.0	-789388.0	11586.0	-5606734.0
16	15	15	49	95	173.0	-679999.0	11698.0	-5606686.0
16	15	15	49	97	174.0	-520538.0	11937.0	-5605779.0
16	15	15	49	99	175.0	-314742.0	12246.0	-5605734.0
16	15	15	49	100	176.0	-46338.0	12333.0	-5607048.0
16	15	15	49	102	178.0	452690.0	13126.0	-5605784.0
16	15	15	49	104	179.0	567726.0	11763.0	-5605549.0
16	15	15	49	105	180.0	565879.0	10552.0	-5606925.0
16	15	15	49	107	181.0	444826.0	11706.0	-5606595.0
16	15	15	49	109	182.0	207812.0	12160.0	-5605674.0
16	15	15	49	111	200.0	176656.0	14332.0	-5606621.0
16	15	15	49	112	223.0	116421.0	13743.0	-5606649.0
16	15	15	49	114	224.0	98571.0	12034.0	-5605894.0
16	15	15	49	115	225.0	115930.0	10102.0	-5606231.0
16	15	15	49	116	226.0	92119.0	9901.0	-5607284.0
16	15	15	49	118	227.0	163904.0	9880.0	-5606492.0
16	15	15	49	119	228.0	322614.0	9848.0	-5605719.0
16	15	15	49	120	229.0	385416.0	9357.0	-5606006.0
16	15	15	49	122	230.0	241571.0	9328.0	-5606897.0
16	15	15	49	123	231.0	145361.0	10643.0	-5606136.0
16	15	15	49	124	232.0	165559.0	11804.0	-5605421.0
16	15	15	49	126	233.0	197873.0	12473.0	-5606367.0
16	15	15	49	127	234.0	189620.0	12518.0	-5606971.0
16	15	15	49	128	235.0	203601.0	13180.0	-5606151.0
16	15	15	49	129	236.0	111635.0	13156.0	-5605503.0
16	15	15	49	131	237.0	34425.0	13096.0	-5606552.0
16	15	15	49	132	238.0	59133.0	13146.0	-5607001.0
16	15	15	49	133	239.0	79349.0	13053.0	-5606150.0
16	15	15	49	134	240.0	97831.0	12860.0	-5605624.0
16	15	15	49	134	241.0	59397.0	12927.0	-5606876.0
16	15	15	49	135	242.0	-12506.0	13171.0	-5606837.0
16	15	15	49	136	243.0	35493.0	13601.0	-5605952.0
16	15	15	49	136	245.0	-52420.0	13914.0	-5606417.0
16	15	15	49	137	246.0	-15638.0	13765.0	-5606864.0
16	15	15	49	137	247.0	-8553.0	12558.0	-5606061.0
16	15	15	49	138	248.0	16558.0	12607.0	-5605409.0
16	15	15	49	139	249.0	87356.0	12763.0	-5606588.0
16	15	15	49	139	250.0	-11501.0	13178.0	-5606619.0
16	15	15	49	140	251.0	-190923.0	14364.0	-5605809.0
16	15	15	49	179	252.0	-183134.0	15218.0	-5605760.0
16	15	15	49	180	253.0	-91919.0	16762.0	-5607134.0
16	15	15	49	181	254.0	29976.0	19833.0	-5606556.0
16	15	15	49	181	255.0	73051.0	22134.0	-5605737.0
16	15	15	49	182	0.0	-4614.0	24164.0	-5605296.0
16	15	15	49	182	1.0	-112136.0	26535.0	-5606252.0
16	15	15	49	183	2.0	-182922.0	28181.0	-5605763.0
16	15	15	49	183	3.0	-210943.0	30370.0	-5605104.0
16	15	15	49	184	4.0	-206985.0	32676.0	-5606207.0
16	15	15	49	184	5.0	-185947.0	34679.0	-5606524.0
16	15	15	49	185	6.0	-161905.0	36618.0	-5605611.0
16	15	15	49	185	7.0	-153328.0	38469.0	-5605231.0
16	15	15	49	200	8.0	-149779.0	40643.0	-5606529.0
16	15	15	49	201	9.0	-140475.0	42794.0	-5606480.0
16	15	15	49	201	10.0	-125907.0	44856.0	-5605586.0
16	15	15	49	202	34.0	241352.0	83506.0	-5605736.0
16	15	15	49	202	35.0	157458.0	82336.0	-5606464.0
16	15	15	49	203	36.0	103262.0	79549.0	-5606916.0
16	15	15	49	203	37.0	123236.0	78397.0	-5606041.0
16	15	15	49	203	38.0	-61497.0	77226.0	-5605541.0
16	15	15	49	204	39.0	-243072.0	75951.0	-5606805.0
16	15	15	49	204	40.0	-328389.0	74404.0	-5606867.0
16	15	15	49	250	41.0	-223812.0	72806.0	-5605993.0
16	15	15	49	251	42.0	-51827.0	72049.0	-5605621.0
16	15	15	49	251	43.0	13961.0	72369.0	-5606888.0
16	15	15	49	252	44.0	-22883.0	70621.0	-5606795.0
16	15	15	49	252	45.0	12272.0	69080.0	-5605879.0
16	15	15	49	252	46.0	-17012.0	67927.0	-5606088.0
16	15	15	49	253	47.0	-44127.0	66266.0	-5607289.0
16	15	15	49	253	48.0	-17371.0	63514.0	-5606783.0
16	15	15	49	253	49.0	-4572.0	61503.0	-5605907.0
16	15	15	49	254	50.0	55198.0	59374.0	-5606132.0
16	15	15	49	254	51.0	40871.0	57093.0	-5607262.0
16	15	15	49	254	52.0	-55042.0	54670.0	-5606717.0
16	15	15	49	254	53.0	-102418.0	52204.0	-5605815.0
16	15	15	49	255	54.0	-95980.0	50003.0	-5606030.0
16	15	15	49	255	55.0	-113919.0	46845.0	-5607315.0
16	15	15	49	255	57.0	-130346.0	41443.0	-5605901.0
16	15	15	49	256	58.0	-335111.0	37584.0	-5606167.0
16	15	15	49	256	59.0	-510127.0	33798.0	-5607284.0
16	15	15	49	256	60.0	-556146.0	30896.0	-5606685.0
16	15	15	49	257	61.0	-371153.0	28148.0	-5605912.0
16	15	15	49	300	62.0	-74530.0	25306.0	-5606774.0
16	15	15	49	301	63.0	209906.0	22943.0	-5607202.0
16	15	15	49	301	64.0	400498.0	21306.0	-5606424.0
16	15	15	49	302	65.0	443960.0	20978.0	-5605934.0
16	15	15	49	302	66.0	257723.0	19076.0	-5607226.0
16	15	15	49	302	67.0	13106.0	16961.0	-5606999.0
16	15	15	49	303	68.0	-33766.0	14481.0	-5606119.0
16	15	15	49	303	69.0	-12398.0	12387.0	-5605646.0
16	15	15	49	304	70.0	44419.0	10397.0	-5607025.0
16	15	15	49	304	71.0	45817.0	7853.0	-5607074.0
16	15	15	49	304	72.0	-1040.0	5690.0	-5606227.0
16	15	15	49	304	73.0	-72974.0	3596.0	-5605862.0
16	15	15	49	305	74.0	-145097.0	1484.0	-5607056.0
16	15	15	49	305	75.0	-135296.0	147.0	-5606820.0
16	15	15	49	305	76.0	26646.0	-1612.0	-5605979.0
16	15	15	49	306	79.0	61624.0	-7189.0	-5607011.0
16	15	15	49	306	80.0	8463.0	-9354.0	-5606132.0
16	15	15	49	306	81.0	-58792.0	-12926.0	-5606316.0
16	15	15	49	307	82.0	-134873.0	-14904.0	-5607494.0
16	15	15	49	307	83.0	-209191.0	-16662.0	-5606942.0
16	15	15	49	307	84.0	-150090.0	-18366.0	-5606009.0
16	15	15	49	308	85.0	-232501.0	-20151.0	-5606109.0
16	15	15	49	357	86.0	-293089.0	-21552.0	-5607509.0
16	15	15	49	357	87.0	99733.0	-21649.0	-5607137.0
16	15	15	49	358	88.0	301624.0	-20992.0	-5606268.0
16	15	15	49	358	89.0	155988.0	-21596.0	-5606216.0
16	15	15	49	359	90.0	-102515.0	-22017.0	-5607499.0
16	15	15	49	359	91.0	-139922.0	-23307.0	-5607111.0
16	15	15	49	359	92.0	-19292.0	-24419.0	-5606264.0
16	15	15	49	360	93.0	-2857.0	-25037.0	-5606699.0
16	15	15	49	360	94.0	-75627.0	-25616.0	-5607621.0
16	15	15	49	360	95.0	251999.0	-26614.0	-5606977.0
16	15	15	49	360	96.0	318921.0	-27436.0	-5606182.0
16	15	15	49	361	97.0	225381.0	-27977.0	-5607138.0
16	15	15	49	361	98.0	126196.0	-28857.0	-5607410.0
16	15	15	49	361	99.0	27497.0	-29449.0	-5606576.0
16	15	15	49	362	100.0	29453.0	-30041.0	-5605916.0
16	15	15	49	362	102.0	109336.0	-31817.0	-5607187.0
16	15	15	49	362	103.0	274028.0	-34813.0	-5606352.0
16	15	15	49	362	104.0	394383.0	-36656.0	-5606116.0
16	15	15	49	363	105.0	420672.0	-37468.0	-5607494.0
16	15	15	49	363	106.0	360037.0	-38694.0	-5607155.0
16	15	15	49	363	107.0	292170.0	-39931.0	-5606321.0
16	15	15	49	363	108.0	269485.0	-40444.0	-5605962.0
16	15	15	49	364	109.0	263003.0	-40720.0	-5607296.0
16	15	15	49	364	110.0	292909.0	-39867.0	-5607050.0
16	15	15	49	364	111.0	376647.0	-39826.0	-5606184.0
16	15	15	49	365	112.0	396748.0	-40130.0	-5606082.0
16	15	15	49	365	113.0	292477.0	-41253.0	-5607389.0
16	15	15	49	365	114.0	231361.0	-41876.0	-5606947.0
16	15	15	49	366	115.0	195838.0	-42521.0	-5606015.0
16	15	15	49	366	116.0	125594.0	-43050.0	-5606100.0
16	15	15	49	366	117.0	31796.0	-43605.0	-5607412.0
16	15	15	49	415	118.0	-75872.0	-44124.0	-5606937.0
16	15	15	49	415	119.0	-135188.0	-43987.0	-5606007.0
16	15	15	49	415	120.0	-91571.0	-44661.0	-5605924.0
16	15	15	49	416	121.0	84921.0	-44672.0	-5607164.0
16	15	15	49	416	122.0	122899.0	-45202.0	-5606771.0
16	15	15	49	416	124.0	-93159.0	-45936.0	-5606546.0
16	15	15	49	417	125.0	-124430.0	-46751.0	-5607205.0
16	15	15	49	417	126.0	-74903.0	-48237.0	-5606496.0
16	15	15	49	417	127.0	-31613.0	-48397.0	-5605654.0
16	15	15	49	418	128.0	-51400.0	-48457.0	-5606570.0
16	15	15	49	418	129.0	-92347.0	-48122.0	-5607247.0
16	15	15	49	418	130.0	-76076.0	-48208.0	-5606529.0
16	15	15	49	418	131.0	-17167.0	-47998.0	-5605627.0
16	15	15	49	418	132.0	-26010.0	-46790.0	-5605966.0
16	15	15	49	419	133.0	-57344.0	-44518.0	-5607096.0
16	15	15	49	419	134.0	-74226.0	-43444.0	-5606497.0
16	15	15	49	419	135.0	-50866.0	-43099.0	-5605646.0
16	15	15	49	419	136.0	-14001.0	-42639.0	-5606347.0
16	15	15	49	420	137.0	2097.0	-42224.0	-5607447.0
16	15	15	49	420	138.0	-4308.0	-41112.0	-5606721.0
16	15	15	49	420	139.0	-14506.0	-40515.0	-5605917.0
16	15	15	49	420	140.0	-15573.0	-39865.0	-5606390.0
16	15	15	49	420	141.0	5947.0	-39104.0	-5606744.0
16	15	15	49	421	142.0	39768.0	-38960.0	-5606022.0
16	15	15	49	421	143.0	81932.0	-38524.0	-5606448.0
16	15	15	49	421	144.0	115468.0	-37766.0	-5607314.0
16	15	15	49	422	145.0	141509.0	-36843.0	-5606510.0
16	15	15	49	422	147.0	178573.0	-35512.0	-5606362.0
16	15	15	49	422	148.0	191448.0	-36519.0	-5607196.0
16	15	15	49	422	149.0	194243.0	-36914.0	-5606404.0
16	15	15	49	423	150.0	177181.0	-36139.0	-5605619.0
16	15	15	49	423	151.0	134795.0	-35191.0	-5606361.0
16	15	15	49	423	152.0	98626.0	-34439.0	-5607226.0
16	15	15	49	469	153.0	78826.0	-34018.0	-5606449.0
16	15	15	49	470	154.0	53068.0	-32751.0	-5605902.0
16	15	15	49	470	155.0	20445.0	-30342.0	-5607324.0
16	15	15	49	470	156.0	-13452.0	-28847.0	-5607360.0
16	15	15	49	471	157.0	-41956.0	-28363.0	-5606527.0
16	15	15	49	471	158.0	-52188.0	-27529.0	-5606046.0
16	15	15	49	471	159.0	-56129.0	-26240.0	-5607393.0
16	15	15	49	472	160.0	-50336.0	-25391.0	-5607262.0
16	15	15	49	472	161.0	-37664.0	-24319.0	-5606419.0
16	15	15	49	472	162.0	-22409.0	-23144.0	-5606006.0
16	15	15	49	472	163.0	-4532.0	-22276.0	-5607309.0
16	15	15	49	473	164.0	8850.0	-21416.0	-5606964.0
16	15	15	49	473	165.0	15559.0	-20634.0	-5606121.0
16	15	15	49	473	166.0	22720.0	-19885.0	-5605753.0
16	15	15	49	474	167.0	36273.0	-19342.0	-5606648.0
16	15	15	49	474	169.0	52485.0	-17820.0	-5605573.0
16	15	15	49	474	170.0	40272.0	-18309.0	-5606794.0
16	15	15	49	474	171.0	18022.0	-18914.0	-5606977.0
16	15	15	49	475	172.0	-2584.0	-18677.0	-5606106.0
16	15	15	49	475	173.0	-24191.0	-18121.0	-5605996.0
16	15	15	49	475	174.0	-53712.0	-17551.0	-5607259.0
16	15	15	49	526	175.0	-82816.0	-16991.0	-5606843.0
16	15	15	49	526	176.0	-110079.0	-16209.0	-5605952.0
16	15	15	49	527	177.0	-111993.0	-14134.0	-5606114.0
16	15	15	49	527	178.0	-92362.0	-12867.0	-5607239.0
16	15	15	49	527	179.0	-41306.0	-12459.0	-5606680.0
16	15	15	49	528	180.0	41266.0	-12192.0	-5605752.0
16	15	15	49	528	181.0	142931.0	-11557.0	-5605886.0
16	15	15	49	528	182.0	183838.0	-10853.0	-5607304.0
16	15	15	49	529	183.0	160023.0	-10426.0	-5606873.0
16	15	15	49	529	184.0	126766.0	-10082.0	-5605956.0
16	15	15	49	529	185.0	82032.0	-10332.0	-5606151.0
16	15	15	49	529	186.0	83859.0	-9737.0	-5607368.0
16	15	15	49	530	187.0	91930.0	-8734.0	-5606849.0
16	15	15	49	530	188.0	65601.0	-7797.0	-5605969.0
16	15	15	49	530	189.0	41380.0	-7779.0	-5606527.0
16	15	15	49	531	192.0	-85081.0	-7554.0	-5605894.0
16	15	15	49	531	193.0	-114435.0	-9326.0	-5606690.0
16	15	15	49	531	194.0	-113009.0	-10148.0	-5607255.0
16	15	15	49	532	195.0	-51039.0	-10806.0	-5606454.0
16	15	15	49	532	196.0	-22854.0	-11132.0	-5605671.0
16	15	15	49	532	197.0	-25476.0	-10919.0	-5606172.0
16	15	15	49	591	198.0	-14060.0	-11027.0	-5606319.0
16	15	15	49	592	199.0	31512.0	-10436.0	-5605577.0
16	15	15	49	592	200.0	100993.0	-8592.0	-5605951.0
16	15	15	49	592	201.0	126064.0	-7860.0	-5607010.0
16	15	15	49	593	202.0	84984.0	-7237.0	-5606289.0
16	15	15	49	593	203.0	-46237.0	-7187.0	-5605669.0
16	15	15	49	593	204.0	-61279.0	-6839.0	-5606725.0
16	15	15	49	594	205.0	4608.0	-6441.0	-5607030.0
16	15	15	49	594	206.0	133170.0	-6201.0	-5606174.0
16	15	15	49	594	207.0	222110.0	-6345.0	-5605567.0
16	15	15	49	594	208.0	228551.0	-6271.0	-5606620.0
16	15	15	49	595	209.0	206541.0	-6065.0	-5606853.0
16	15	15	49	595	210.0	56034.0	-6386.0	-5605960.0
16	15	15	49	595	211.0	24117.0	-5684.0	-5605310.0
16	15	15	49	595	212.0	17279.0	-5937.0	-5606734.0
16	15	15	49	662	214.0	21831.0	-5651.0	-5606287.0
16	15	15	49	662	215.0	-125053.0	-6809.0	-5605662.0
16	15	15	49	662	216.0	-184480.0	-8379.0	-5607049.0
16	15	15	49	663	217.0	-114159.0	-8259.0	-5607227.0
16	15	15	49	663	218.0	-10452.0	-6807.0	-5606427.0
16	15	15	49	663	219.0	-61952.0	-6112.0	-5606021.0
16	15	15	49	664	220.0	-135706.0	-6252.0	-5607297.0
16	15	15	49	664	236.0	-218532.0	-3940.0	-5606409.0
16	15	15	49	664	237.0	-202764.0	-4219.0	-5605537.0
16	15	15	49	664	238.0	-180734.0	-5727.0	-5606164.0
16	15	15	49	665	239.0	-146671.0	-6371.0	-5606789.0
16	15	15	49	665	240.0	-119518.0	-6288.0	-5606064.0
16	15	15	49	665	241.0	-103337.0	-6294.0	-5605247.0
16	15	15	49	666	242.0	-91109.0	-6401.0	-5606134.0
16	15	15	49	666	243.0	-76016.0	-6664.0	-5606508.0
16	15	15	49	666	244.0	-49765.0	-6331.0	-5605717.0
16	15	15	49	666	245.0	-4388.0	-4849.0	-5605012.0
16	15	15	49	667	246.0	77608.0	-3473.0	-5606221.0
16	15	15	49	667	247.0	112449.0	-3205.0	-5606450.0
16	15	15	49	667	248.0	99129.0	-2600.0	-5605673.0
16	15	15	49	668	249.0	67688.0	-2302.0	-5604920.0
16	15	15	49	668	250.0	27684.0	-1954.0	-5605676.0
16	15	15	49	668	251.0	7505.0	-1348.0	-5605877.0
16	15	15	49	668	252.0	-5864.0	-1291.0	-5605262.0
16	15	15	49	669	253.0	-14379.0	-1074.0	-5606308.0
16	15	15	49	669	254.0	-23393.0	-718.0	-5606815.0
16	15	15	49	669	255.0	-14742.0	-566.0	-5605940.0
16	15	15	49	670	0.0	5968.0	-159.0	-5605389.0
16	15	15	49	670	1.0	25348.0	407.0	-5606371.0
16	15	15	49	670	3.0	65980.0	676.0	-5605721.0
16	15	15	49	671	4.0	79870.0	-594.0	-5605029.0
16	15	15	49	671	5.0	80793.0	-1872.0	-5606061.0
16	15	15	49	672	6.0	70459.0	-1914.0	-5606719.0
16	15	15	49	672	7.0	48498.0	-1871.0	-5605842.0
16	15	15	49	672	8.0	29816.0	-1506.0	-5605228.0
16	15	15	49	740	9.0	27299.0	-1292.0	-5606335.0
16	15	15	49	741	10.0	40762.0	-742.0	-5606630.0
16	15	15	49	743	11.0	65626.0	1145.0	-5605783.0
16	15	15	49	744	12.0	95638.0	2268.0	-5605282.0
16	15	15	49	745	13.0	123209.0	3262.0	-5606572.0
16	15	15	49	746	14.0	151055.0	4076.0	-5606606.0
16	15	15	49	747	15.0	230391.0	3971.0	-5605721.0
16	15	15	49	748	16.0	284428.0	3772.0	-5605692.0
16	15	15	49	749	17.0	291776.0	3606.0	-5606996.0
16	15	15	49	750	18.0	281859.0	3913.0	-5606465.0
16	15	15	49	751	19.0	222547.0	4393.0	-5605593.0
16	15	15	49	752	20.0	131124.0	4601.0	-5605332.0
16	15	15	49	753	21.0	48872.0	4809.0	-5606800.0
16	15	15	49	754	22.0	16648.0	5071.0	-5606434.0
16	15	15	49	755	23.0	54819.0	5278.0	-5605624.0
16	15	15	49	756	25.0	133081.0	6095.0	-5607270.0
16	15	15	49	757	26.0	113325.0	5342.0	-5606736.0
16	15	15	49	758	27.0	67795.0	3854.0	-5605947.0
16	15	15	49	759	28.0	27384.0	3934.0	-5606326.0
16	15	15	49	760	29.0	3625.0	4152.0	-5607380.0
16	15	15	49	761	30.0	-10181.0	4000.0	-5606584.0
16	15	15	49	762	31.0	1713.0	4023.0	-5605926.0
16	15	15	49	763	32.0	51892.0	4093.0	-5606763.0
16	15	15	49	764	33.0	109420.0	4890.0	-5607101.0
16	15	15	49	765	34.0	162936.0	6976.0	-5606227.0
16	15	15	49	766	35.0	218976.0	7496.0	-5605555.0
16	15	15	49	767	36.0	273681.0	7986.0	-5606501.0
16	15	15	49	768	37.0	298874.0	8039.0	-5607188.0
16	15	15	49	769	38.0	296261.0	8263.0	-5606316.0
16	15	15	49	772	39.0	264425.0	9225.0	-5605664.0
16	15	15	49	773	40.0	215888.0	9450.0	-5606546.0
16	15	15	49	774	41.0	158963.0	9591.0	-5606928.0
16	15	15	49	776	42.0	101949.0	9964.0	-5606067.0
16	15	15	49	778	43.0	46408.0	9601.0	-5605692.0
16	15	15	49	779	44.0	-2570.0	9253.0	-5606959.0
16	15	15	49	780	45.0	-25419.0	9696.0	-5606865.0
16	15	15	49	781	46.0	-68584.0	10440.0	-5605955.0
16	15	15	49	782	48.0	-279944.0	10244.0	-5607071.0
16	15	15	49	783	49.0	-518862.0	8694.0	-5606539.0
16	15	15	49	784	50.0	-755337.0	7378.0	-5605614.0
16	15	15	49	786	51.0	-867587.0	7117.0	-5605237.0
16	15	15	49	787	52.0	-881274.0	7045.0	-5606360.0
16	15	15	49	788	53.0	-790522.0	6863.0	-5605939.0
16	15	15	49	789	54.0	-610737.0	6887.0	-5605123.0
16	15	15	49	790	55.0	-327047.0	7378.0	-5605552.0
16	15	15	49	792	56.0	48103.0	9526.0	-5606398.0
16	15	15	49	794	57.0	390318.0	10881.0	-5605699.0
16	15	15	49	795	58.0	585908.0	11183.0	-5605282.0
16	15	15	49	796	59.0	621870.0	10908.0	-5606768.0
16	15	15	49	797	60.0	510604.0	11576.0	-5606622.0
16	15	15	49	798	61.0	259189.0	12012.0	-5605749.0
16	15	15	49	798	62.0	-40061.0	11924.0	-5605295.0
16	15	15	49	799	63.0	-300200.0	11528.0	-5606346.0
16	15	15	49	800	64.0	-459329.0	12202.0	-5605999.0
16	15	15	49	811	65.0	-528707.0	12534.0	-5605146.0
16	15	15	49	811	66.0	-424617.0	13103.0	-5605341.0
16	15	15	49	812	67.0	-204239.0	12948.0	-5606288.0
16	15	15	49	813	68.0	74364.0	13186.0	-5605693.0
16	15	15	49	813	70.0	515897.0	13795.0	-5605161.0
16	15	15	49	814	71.0	604642.0	13006.0	-5606199.0
16	15	15	49	814	72.0	640384.0	11544.0	-5605597.0
16	15	15	49	814	73.0	478566.0	11326.0	-5604707.0
16	15	15	49	815	74.0	368563.0	10934.0	-5605306.0
16	15	15	49	815	75.0	278876.0	10439.0	-5606213.0
16	15	15	49	815	76.0	212314.0	10199.0	-5605523.0
16	15	15	49	816	77.0	158616.0	10114.0	-5604807.0
16	15	15	49	816	78.0	38377.0	10755.0	-5606073.0
16	15	15	49	816	79.0	-98366.0	12668.0	-5606298.0
16	15	15	49	816	80.0	-182749.0	13979.0	-5605495.0
16	15	15	49	817	81.0	-198858.0	14431.0	-5604967.0
16	15	15	49	818	82.0	-155272.0	14644.0	-5606231.0
16	15	15	49	818	83.0	-107784.0	14810.0	-5605989.0
16	15	15	49	819	84.0	-103912.0	15121.0	-5605190.0
16	15	15	49	819	85.0	-138534.0	15108.0	-5604705.0
16	15	15	49	819	86.0	-176802.0	15165.0	-5606138.0
16	15	15	49	820	87.0	-196535.0	14879.0	-5605987.0
16	15	15	49	820	88.0	-195927.0	15016.0	-5605199.0
16	15	15	49	820	89.0	-180764.0	15071.0	-5604836.0
16	15	15	49	821	90.0	-160792.0	15089.0	-5606310.0
16	15	15	49	821	91.0	-140688.0	14979.0	-5606069.0
16	15	15	49	821	93.0	-124189.0	14701.0	-5605363.0
16	15	15	49	822	94.0	-126808.0	13237.0	-5606616.0
16	15	15	49	822	95.0	-118564.0	11845.0	-5605991.0
16	15	15	49	823	96.0	-113110.0	10933.0	-5605167.0
16	15	15	49	823	97.0	-101752.0	10752.0	-5605447.0
16	15	15	49	823	98.0	-85063.0	10814.0	-5606637.0
16	15	15	49	852	99.0	-94621.0	10436.0	-5605965.0
16	15	15	49	853	100.0	-59244.0	10864.0	-5605120.0
16	15	15	49	913	101.0	20719.0	12919.0	-5605246.0
16	15	15	49	914	102.0	102824.0	13405.0	-5606451.0
16	15	15	49	915	103.0	168828.0	13225.0	-5605904.0
16	15	15	49	915	104.0	172736.0	13703.0	-5605057.0
16	15	15	49	916	105.0	146574.0	13616.0	-5605392.0
16	15	15	49	917	106.0	132792.0	13782.0	-5606592.0
16	15	15	49	918	107.0	134366.0	13709.0	-5605968.0
16	15	15	49	918	108.0	149429.0	13726.0	-5605204.0
16	15	15	49	919	109.0	150946.0	13679.0	-5606117.0
16	15	15	49	919	110.0	133085.0	13860.0	-5606600.0
16	15	15	49	919	111.0	151097.0	13704.0	-5605817.0
16	15	15	49	919	112.0	151773.0	13526.0	-5605091.0
16	15	15	49	920	113.0	102129.0	13642.0	-5606260.0
16	15	15	49	920	115.0	64470.0	13444.0	-5605876.0
16	15	15	49	920	116.0	106816.0	12319.0	-5605054.0
16	15	15	49	920	117.0	147611.0	10676.0	-5606124.0
16	15	15	49	921	118.0	159151.0	10414.0	-5606670.0
16	15	15	49	921	119.0	54116.0	9878.0	-5605907.0
16	15	15	49	921	120.0	-261701.0	9263.0	-5605075.0
16	15	15	49	922	121.0	212502.0	9809.0	-5605919.0
16	15	15	49	922	122.0	505599.0	9919.0	-5606281.0
16	15	15	49	923	123.0	130029.0	10746.0	-5605476.0
16	15	15	49	923	124.0	-3458.0	12869.0	-5604866.0
16	15	15	49	923	125.0	-10534.0	13634.0	-5606151.0
16	15	15	49	924	126.0	130519.0	14756.0	-5606081.0
16	15	15	49	924	127.0	247936.0	16146.0	-5605308.0
16	15	15	49	925	128.0	252493.0	16739.0	-5605168.0
16	15	15	49	925	129.0	196314.0	17331.0	-5606265.0
16	15	15	49	925	130.0	129478.0	18226.0	-5605636.0
16	15	15	49	926	131.0	159954.0	19272.0	-5604802.0
16	15	15	49	929	132.0	194863.0	20833.0	-5604806.0
16	15	15	49	929	133.0	175501.0	22683.0	-5606131.0
16	15	15	49	930	134.0	112550.0	24471.0	-5605572.0
16	15	15	49	930	135.0	53368.0	26073.0	-5604716.0
16	15	15	49	930	136.0	4856.0	27469.0	-5605007.0
16	15	15	49	931	138.0	-121123.0	31245.0	-5605507.0
16	15	15	49	931	139.0	-126041.0	31727.0	-5604807.0
16	15	15	49	932	140.0	-95408.0	33383.0	-5605906.0
16	15	15	49	932	141.0	-48061.0	35169.0	-5606339.0
16	15	15	49	932	142.0	3636.0	37361.0	-5605503.0
16	15	15	49	933	143.0	44380.0	39435.0	-5604756.0
16	15	15	50	2	144.0	67513.0	41649.0	-5605767.0
16	15	15	50	3	145.0	100203.0	44527.0	-5606095.0
16	15	15	50	3	146.0	137220.0	48877.0	-5605270.0
16	15	15	50	3	147.0	154823.0	52264.0	-5604464.0
16	15	15	50	3	148.0	143174.0	55103.0	-5605517.0
16	15	15	50	4	149.0	125238.0	57848.0	-5606087.0
16	15	15	50	4	150.0	92543.0	60248.0	-5605319.0
16	15	15	50	4	151.0	85166.0	63308.0	-5604517.0
16	15	15	50	5	152.0	132404.0	66224.0	-5605551.0
16	15	15	50	5	153.0	181541.0	68608.0	-5606099.0
16	15	15	50	5	154.0	29584.0	70831.0	-5605334.0
16	15	15	50	6	155.0	-313847.0	73488.0	-5604593.0
16	15	15	50	6	156.0	-165450.0	75727.0	-5605774.0
16	15	15	50	6	157.0	29234.0	77685.0	-5605998.0
16	15	15	50	6	158.0	55569.0	79259.0	-5605229.0
16	15	15	50	7	160.0	-15772.0	82696.0	-5606400.0
16	15	15	50	7	161.0	-37484.0	83006.0	-5605883.0
16	15	15	50	7	162.0	-39396.0	82241.0	-5605072.0
16	15	15	50	7	163.0	-55546.0	83286.0	-5604894.0
16	15	15	50	8	164.0	-127486.0	84309.0	-5606449.0
16	15	15	50	8	165.0	-261647.0	85147.0	-5605978.0
16	15	15	50	8	166.0	-249169.0	86776.0	-5605202.0
16	15	15	50	9	167.0	-222675.0	88341.0	-5605322.0
16	15	15	50	9	168.0	-208463.0	88783.0	-5606599.0
16	15	15	50	9	169.0	-160723.0	88884.0	-5605982.0
16	15	15	50	9	170.0	-200832.0	88649.0	-5605214.0
16	15	15	50	10	171.0	-280185.0	88089.0	-5605822.0
16	15	15	50	10	172.0	-361457.0	87259.0	-5606898.0
16	15	15	50	10	173.0	-426099.0	86471.0	-5606136.0
16	15	15	50	11	174.0	-426588.0	85273.0	-5605412.0
16	15	15	50	11	183.0	237105.0	68676.0	-5606438.0
16	15	15	50	11	184.0	246098.0	64509.0	-5607192.0
16	15	15	50	12	185.0	233020.0	61333.0	-5606435.0
16	15	15	50	12	186.0	217166.0	58330.0	-5605814.0
16	15	15	50	12	187.0	209983.0	55450.0	-5606966.0
16	15	15	50	13	188.0	208661.0	52569.0	-5607032.0
16	15	15	50	93	189.0	197874.0	49674.0	-5606202.0
16	15	15	50	94	190.0	167044.0	46916.0	-5605728.0
16	15	15	50	94	191.0	108189.0	45989.0	-5607167.0
16	15	15	50	95	192.0	48837.0	43639.0	-5607049.0
16	15	15	50	95	193.0	-14826.0	41818.0	-5606234.0
16	15	15	50	95	194.0	-96336.0	39801.0	-5605771.0
16	15	15	50	96	195.0	-236991.0	36701.0	-5606918.0
16	15	15	50	96	196.0	-451884.0	34022.0	-5606508.0
16	15	15	50	96	197.0	-567789.0	31382.0	-5605682.0
16	15	15	50	96	198.0	-411523.0	28595.0	-5605253.0
16	15	15	50	97	199.0	-108434.0	26168.0	-5606193.0
16	15	15	50	97	200.0	195506.0	23586.0	-5605736.0
16	15	15	50	97	201.0	371877.0	20694.0	-5605436.0
16	15	15	50	98	202.0	315403.0	18228.0	-5606725.0
16	15	15	50	98	203.0	121706.0	16225.0	-5606501.0
16	15	15	50	98	205.0	-91890.0	11443.0	-5605707.0
16	15	15	50	99	206.0	-103036.0	8109.0	-5606872.0
16	15	15	50	99	207.0	-101991.0	4291.0	-5606330.0
16	15	15	50	99	208.0	-113785.0	1586.0	-5605496.0
16	15	15	50	100	209.0	-98144.0	-564.0	-5606273.0
16	15	15	50	100	210.0	-55157.0	-2603.0	-5607083.0
16	15	15	50	100	211.0	15631.0	-4869.0	-5606363.0
16	15	15	50	100	212.0	104910.0	-6630.0	-5605441.0
16	15	15	50	101	213.0	193573.0	-6681.0	-5605691.0
16	15	15	50	101	214.0	266241.0	-7489.0	-5606994.0
16	15	15	50	101	215.0	310691.0	-8881.0	-5606498.0
16	15	15	50	102	216.0	310238.0	-10575.0	-5605595.0
16	15	15	50	102	217.0	255393.0	-12354.0	-5605914.0
16	15	15	50	102	218.0	128146.0	-13629.0	-5607017.0
16	15	15	50	103	219.0	-15777.0	-14970.0	-5606429.0
16	15	15	50	103	220.0	-102196.0	-16299.0	-5605662.0
16	15	15	50	103	221.0	-150420.0	-17496.0	-5606666.0
16	15	15	50	104	222.0	-201764.0	-18486.0	-5606961.0
16	15	15	50	104	223.0	-249396.0	-20401.0	-5606179.0
16	15	15	50	104	224.0	-246783.0	-21418.0	-5605555.0
16	15	15	50	105	225.0	-195379.0	-22557.0	-5606926.0
16	15	15	50	105	228.0	43855.0	-25690.0	-5605449.0
16	15	15	50	105	229.0	126428.0	-28727.0	-5606101.0
16	15	15	50	106	230.0	178798.0	-30451.0	-5606376.0
16	15	15	50	106	231.0	191203.0	-31965.0	-5605602.0
16	15	15	50	106	232.0	165758.0	-33221.0	-5605776.0
16	15	15	50	107	233.0	120001.0	-34303.0	-5606911.0
16	15	15	50	181	234.0	85714.0	-35090.0	-5606206.0
16	15	15	50	181	235.0	71427.0	-35428.0	-5605527.0
16	15	15	50	181	236.0	80087.0	-33851.0	-5606469.0
16	15	15	50	182	237.0	103264.0	-34109.0	-5607081.0
16	15	15	50	182	238.0	129046.0	-34844.0	-5606216.0
16	15	15	50	182	239.0	153645.0	-35242.0	-5605519.0
16	15	15	50	182	240.0	171369.0	-36082.0	-5606471.0
16	15	15	50	182	241.0	180719.0	-37157.0	-5607097.0
16	15	15	50	183	242.0	187587.0	-38369.0	-5606266.0
16	15	15	50	183	243.0	191164.0	-39204.0	-5605438.0
16	15	15	50	183	244.0	186543.0	-40196.0	-5605889.0
16	15	15	50	183	245.0	167293.0	-40851.0	-5606648.0
16	15	15	50	184	246.0	141474.0	-41552.0	-5605883.0
16	15	15	50	184	247.0	109400.0	-43079.0	-5605209.0
16	15	15	50	184	248.0	76035.0	-43644.0	-5606371.0
16	15	15	50	184	250.0	35994.0	-44231.0	-5605821.0
16	15	15	50	185	251.0	14106.0	-46087.0	-5605454.0
16	15	15	50	185	252.0	-8724.0	-47664.0	-5606857.0
16	15	15	50	185	253.0	-29022.0	-48298.0	-5606577.0
16	15	15	50	185	254.0	-21484.0	-48892.0	-5605762.0
16	15	15	50	186	255.0	9552.0	-49595.0	-5605604.0
16	15	15	50	186	0.0	53359.0	-50497.0	-5606334.0
16	15	15	50	186	1.0	81801.0	-50782.0	-5605695.0
16	15	15	50	186	2.0	81924.0	-49631.0	-5605496.0
16	15	15	50	186	3.0	64953.0	-49390.0	-5606579.0
16	15	15	50	187	4.0	62776.0	-49304.0	-5606117.0
16	15	15	50	187	5.0	61251.0	-49134.0	-5605225.0
16	15	15	50	187	6.0	33506.0	-48686.0	-5604911.0
16	15	15	50	187	7.0	-17170.0	-48321.0	-5606080.0
16	15	15	50	188	8.0	-71086.0	-48508.0	-5605817.0
16	15	15	50	188	9.0	-96708.0	-48497.0	-5604870.0
16	15	15	50	188	10.0	-75659.0	-48181.0	-5605062.0
16	15	15	50	288	11.0	-21190.0	-48047.0	-5606275.0
16	15	15	50	288	12.0	19808.0	-48222.0	-5605743.0
16	15	15	50	288	13.0	17776.0	-48227.0	-5604925.0
16	15	15	50	288	14.0	-23816.0	-47562.0	-5605822.0
16	15	15	50	288	16.0	-98443.0	-47282.0	-5605715.0
16	15	15	50	289	17.0	-92978.0	-47227.0	-5604832.0
16	15	15	50	289	18.0	-69255.0	-48853.0	-5605460.0
16	15	15	50	289	19.0	-40547.0	-48639.0	-5606302.0
16	15	15	50	289	20.0	-6490.0	-48435.0	-5605627.0
16	15	15	50	289	21.0	22879.0	-47536.0	-5604794.0
16	15	15	50	289	22.0	31398.0	-45068.0	-5605249.0
16	15	15	50	290	23.0	27078.0	-44081.0	-5605981.0
16	15	15	50	290	24.0	27112.0	-42906.0	-5605298.0
16	15	15	50	290	25.0	46576.0	-41814.0	-5604526.0
16	15	15	50	290	26.0	78943.0	-41147.0	-5605551.0
16	15	15	50	290	27.0	103808.0	-40476.0	-5606130.0
16	15	15	50	291	39.0	-85382.0	-30019.0	-5606268.0
16	15	15	50	291	40.0	-66516.0	-30676.0	-5605379.0
16	15	15	50	291	41.0	-41473.0	-31539.0	-5605230.0
16	15	15	50	291	42.0	-15292.0	-30815.0	-5606395.0
16	15	15	50	291	43.0	2868.0	-30588.0	-5605956.0
16	15	15	50	292	44.0	26657.0	-29887.0	-5605119.0
16	15	15	50	292	45.0	61620.0	-28793.0	-5605710.0
16	15	15	50	292	46.0	103489.0	-28042.0	-5606641.0
16	15	15	50	292	47.0	116284.0	-26305.0	-5605943.0
16	15	15	50	310	48.0	83393.0	-23635.0	-5605136.0
16	15	15	50	310	49.0	19193.0	-22397.0	-5605985.0
16	15	15	50	310	50.0	-43911.0	-21605.0	-5606397.0
16	15	15	50	310	51.0	-69615.0	-21446.0	-5605620.0
16	15	15	50	311	52.0	-57311.0	-20014.0	-5604771.0
16	15	15	50	311	53.0	-36959.0	-18707.0	-5605634.0
16	15	15	50	311	54.0	-41207.0	-17742.0	-5606279.0
16	15	15	50	312	55.0	-75534.0	-17500.0	-5605543.0
16	15	15	50	312	56.0	-86278.0	-16631.0	-5604727.0
16	15	15	50	312	57.0	-67302.0	-16241.0	-5605721.0
16	15	15	50	312	58.0	734.0	-15531.0	-5606249.0
16	15	15	50	313	59.0	85674.0	-15525.0	-5605526.0
16	15	15	50	313	60.0	134296.0	-15012.0	-5605146.0
16	15	15	50	313	61.0	123042.0	-14092.0	-5606544.0
16	15	15	50	332	62.0	59014.0	-13917.0	-5606201.0
16	15	15	50	332	84.0	-10437.0	-10024.0	-5605710.0
16	15	15	50	333	85.0	-16616.0	-11568.0	-5606243.0
16	15	15	50	333	86.0	-23958.0	-12445.0	-5605481.0
16	15	15	50	333	87.0	-21966.0	-12532.0	-5604744.0
16	15	15	50	333	88.0	-9037.0	-12628.0	-5605724.0
16	15	15	50	334	89.0	6867.0	-12841.0	-5605802.0
16	15	15	50	354	90.0	22691.0	-13096.0	-5605016.0
16	15	15	50	354	91.0	32670.0	-13026.0	-5604853.0
16	15	15	50	355	92.0	40789.0	-11341.0	-5606271.0
16	15	15	50	355	93.0	49989.0	-10051.0	-5605791.0
16	15	15	50	355	94.0	57016.0	-8859.0	-5605035.0
16	15	15	50	355	95.0	66634.0	-8401.0	-5605384.0
16	15	15	50	355	96.0	71976.0	-8409.0	-5606457.0
16	15	15	50	356	97.0	68206.0	-8216.0	-5605700.0
16	15	15	50	356	98.0	60857.0	-8048.0	-5604932.0
16	15	15	50	356	99.0	46929.0	-7764.0	-5604909.0
16	15	15	50	357	100.0	34754.0	-7194.0	-5606014.0
16	15	15	50	357	101.0	24271.0	-7146.0	-5605326.0
16	15	15	50	357	102.0	15786.0	-6862.0	-5604574.0
16	15	15	50	389	103.0	4751.0	-7054.0	-5605262.0
16	15	15	50	390	104.0	-14419.0	-7171.0	-5606222.0
16	15	15	50	390	106.0	-53316.0	-7036.0	-5604734.0
16	15	15	50	390	107.0	-62890.0	-7444.0	-5605736.0
16	15	15	50	390	108.0	-61162.0	-9065.0	-5606430.0
16	15	15	50	391	109.0	-54794.0	-9611.0	-5605564.0
16	15	15	50	391	110.0	-45059.0	-9916.0	-5605034.0
16	15	15	50	391	111.0	-30714.0	-10117.0	-5606266.0
16	15	15	50	391	112.0	-13019.0	-10081.0	-5606464.0
16	15	15	50	477	113.0	813.0	-9978.0	-5605556.0
16	15	15	50	478	114.0	8582.0	-9170.0	-5604834.0
16	15	15	50	478	115.0	2725.0	-7102.0	-5605639.0
16	15	15	50	478	116.0	-11388.0	-6101.0	-5606354.0
16	15	15	50	478	117.0	-28357.0	-5381.0	-5605516.0
16	15	15	50	478	118.0	-46826.0	-5031.0	-5604886.0
16	15	15	50	479	119.0	-67742.0	-4710.0	-5606097.0
16	15	15	50	479	120.0	-82966.0	-4130.0	-5606398.0
16	15	15	50	479	121.0	-98537.0	-3395.0	-5605549.0
16	15	15	50	479	122.0	-105861.0	-3082.0	-5605062.0
16	15	15	50	479	123.0	-108841.0	-2679.0	-5606309.0
16	15	15	50	479	124.0	-108246.0	-2416.0	-5606169.0
16	15	15	50	480	125.0	-105230.0	-1208.0	-5605314.0
16	15	15	50	480	126.0	-101804.0	-1056.0	-5605209.0
16	15	15	50	480	127.0	-90474.0	-1327.0	-5606671.0
16	15	15	50	480	129.0	-68896.0	-1430.0	-5605414.0
16	15	15	50	481	130.0	-63490.0	-2944.0	-5605630.0
16	15	15	50	481	131.0	-58089.0	-3549.0	-5606732.0
16	15	15	50	481	132.0	-51399.0	-3690.0	-5606032.0
16	15	15	50	481	133.0	-36944.0	-3545.0	-5605256.0
16	15	15	50	481	134.0	-18244.0	-3255.0	-5604945.0
16	15	15	50	482	135.0	2379.0	-2959.0	-5606409.0
16	15	15	50	482	136.0	29900.0	-2279.0	-5606060.0
16	15	15	50	482	137.0	55748.0	262.0	-5605356.0
16	15	15	50	482	138.0	76243.0	992.0	-5606022.0
16	15	15	50	483	139.0	83294.0	1237.0	-5607224.0
16	15	15	50	483	140.0	75687.0	1296.0	-5606447.0
16	15	15	50	483	141.0	61763.0	1423.0	-5605792.0
16	15	15	50	483	142.0	51820.0	2121.0	-5606721.0
16	15	15	50	483	143.0	45743.0	2937.0	-5607162.0
16	15	15	50	484	144.0	48278.0	2877.0	-5606264.0
16	15	15	50	484	145.0	41906.0	3304.0	-5605677.0
16	15	15	50	484	146.0	34746.0	3923.0	-5606753.0
16	15	15	50	484	147.0	22378.0	4499.0	-5607057.0
16	15	15	50	484	148.0	10874.0	4618.0	-5606199.0
16	15	15	50	484	149.0	1574.0	4664.0	-5605586.0
16	15	15	50	485	151.0	-21099.0	5393.0	-5606998.0
16	15	15	50	485	152.0	-34771.0	4864.0	-5606115.0
16	15	15	50	485	153.0	-41087.0	3501.0	-5605533.0
16	15	15	50	485	154.0	-35939.0	3126.0	-5606698.0
16	15	15	50	485	155.0	-31141.0	3038.0	-5606836.0
16	15	15	50	486	156.0	-64086.0	3272.0	-5605967.0
16	15	15	50	486	157.0	-107961.0	3458.0	-5605869.0
16	15	15	50	585	158.0	-55623.0	3394.0	-5607241.0
16	15	15	50	585	159.0	21994.0	4293.0	-5606828.0
16	15	15	50	586	160.0	63970.0	6139.0	-5605968.0
16	15	15	50	586	161.0	73477.0	6760.0	-5606090.0
16	15	15	50	586	162.0	29037.0	7256.0	-5607289.0
16	15	15	50	587	163.0	-42069.0	8146.0	-5606665.0
16	15	15	50	587	164.0	-11740.0	9076.0	-5605867.0
16	15	15	50	587	165.0	69968.0	8510.0	-5605652.0
16	15	15	50	587	166.0	110673.0	8551.0	-5606237.0
16	15	15	50	588	167.0	108261.0	9058.0	-5605597.0
16	15	15	50	588	168.0	91060.0	8958.0	-5605584.0
16	15	15	50	588	169.0	69589.0	8959.0	-5606845.0
16	15	15	50	589	170.0	105820.0	9098.0	-5606322.0
16	15	15	50	589	171.0	163437.0	8984.0	-5605537.0
16	15	15	50	589	172.0	222991.0	9156.0	-5606123.0
16	15	15	50	589	174.0	289372.0	9738.0	-5606085.0
16	15	15	50	590	175.0	251567.0	7869.0	-5605309.0
16	15	15	50	590	176.0	201677.0	7398.0	-5606302.0
16	15	15	50	590	177.0	167657.0	7274.0	-5606850.0
16	15	15	50	591	178.0	150877.0	7238.0	-5606052.0
16	15	15	50	591	179.0	138694.0	7407.0	-5605206.0
16	15	15	50	591	180.0	119544.0	7711.0	-5606143.0
16	15	15	50	592	181.0	84819.0	8133.0	-5606859.0
16	15	15	50	592	182.0	52525.0	9766.0	-5606106.0
16	15	15	50	592	183.0	28056.0	10718.0	-5605334.0
16	15	15	50	593	184.0	3891.0	11080.0	-5606429.0
16	15	15	50	593	185.0	-23746.0	10961.0	-5606769.0
16	15	15	50	596	186.0	-56877.0	11201.0	-5605986.0
16	15	15	50	596	187.0	-94753.0	12026.0	-5605481.0
16	15	15	50	596	188.0	-120384.0	12047.0	-5606546.0
16	15	15	50	597	189.0	-136208.0	12261.0	-5606192.0
16	15	15	50	597	190.0	-143697.0	12388.0	-5605652.0
16	15	15	50	597	191.0	-148087.0	12738.0	-5606829.0
16	15	15	50	597	192.0	-144392.0	13099.0	-5606997.0
16	15	15	50	598	193.0	-131936.0	13138.0	-5606097.0
16	15	15	50	598	194.0	-104595.0	12896.0	-5605464.0
16	15	15	50	598	196.0	34400.0	13887.0	-5606874.0
16	15	15	50	599	197.0	48079.0	13040.0	-5605976.0
16	15	15	50	599	198.0	-34925.0	11250.0	-5605339.0
16	15	15	50	599	199.0	-53598.0	10700.0	-5606250.0
16	15	15	50	600	200.0	-119761.0	10766.0	-5606637.0
16	15	15	50	600	201.0	-290333.0	10651.0	-5605746.0
16	15	15	50	600	202.0	-601401.0	10682.0	-5605324.0
16	15	15	50	600	203.0	-909632.0	10665.0	-5606509.0
16	15	15	50	601	204.0	-1038428.0	11506.0	-5606387.0
16	15	15	50	601	205.0	-900346.0	13601.0	-5605476.0
16	15	15	50	602	206.0	-665544.0	14037.0	-5605339.0
16	15	15	50	602	207.0	-365489.0	13893.0	-5606740.0
16	15	15	50	602	208.0	25596.0	14374.0	-5606499.0
16	15	15	50	602	209.0	330035.0	14286.0	-5605626.0
16	15	15	50	603	210.0	535469.0	14847.0	-5605588.0
16	15	15	50	603	211.0	587126.0	14583.0	-5606916.0
16	15	15	50	603	212.0	459773.0	14121.0	-5606510.0
16	15	15	50	604	213.0	263576.0	14408.0	-5605605.0
16	15	15	50	604	214.0	44131.0	14384.0	-5605260.0
16	15	15	50	604	215.0	-207653.0	14736.0	-5606641.0
16	15	15	50	605	216.0	-444656.0	14345.0	-5606399.0
16	15	15	50	605	217.0	-560641.0	15079.0	-5605522.0
16	15	15	50	605	219.0	-305605.0	14539.0	-5606736.0
16	15	15	50	606	220.0	66848.0	12526.0	-5606476.0
16	15	15	50	606	221.0	389128.0	11510.0	-5605686.0
16	15	15	50	606	222.0	508336.0	11534.0	-5606191.0
16	15	15	50	607	223.0	403108.0	11471.0	-5607057.0
16	15	15	50	607	224.0	196804.0	11056.0	-5606312.0
16	15	15	50	618	225.0	55311.0	11490.0	-5605561.0
16	15	15	50	708	226.0	37934.0	12152.0	-5606462.0
16	15	15	50	708	227.0	84089.0	13609.0	-5607004.0
16	15	15	50	708	228.0	146691.0	14299.0	-5606139.0
16	15	15	50	709	229.0	199900.0	14791.0	-5605499.0
16	15	15	50	709	230.0	245498.0	14413.0	-5606538.0
16	15	15	50	709	231.0	232693.0	14549.0	-5607005.0
16	15	15	50	709	232.0	125815.0	14830.0	-5606109.0
16	15	15	50	710	233.0	-27011.0	14378.0	-5605394.0
16	15	15	50	710	234.0	-161362.0	14336.0	-5606071.0
16	15	15	50	710	235.0	-246602.0	14449.0	-5606722.0
16	15	15	50	710	236.0	-290102.0	14352.0	-5605891.0
16	15	15	50	711	237.0	-291875.0	14404.0	-5605441.0
16	15	15	50	711	238.0	-254976.0	14934.0	-5606599.0
16	15	15	50	711	239.0	-166607.0	15154.0	-5606633.0
16	15	15	50	711	241.0	-135983.0	15014.0	-5605469.0
16	15	15	50	712	242.0	-111543.0	14063.0	-5606787.0
16	15	15	50	712	243.0	-80090.0	12404.0	-5606600.0
16	15	15	50	712	244.0	-7927.0	11704.0	-5605691.0
16	15	15	50	712	245.0	81595.0	11554.0	-5605167.0
16	15	15	50	712	246.0	24919.0	11858.0	-5606410.0
16	15	15	50	713	247.0	-28949.0	12058.0	-5606619.0
16	15	15	50	713	248.0	-13144.0	12012.0	-5605724.0
16	15	15	50	713	249.0	27588.0	13855.0	-5605272.0
16	15	15	50	713	250.0	109648.0	15174.0	-5606401.0
16	15	15	50	713	251.0	161357.0	15203.0	-5606271.0
16	15	15	50	714	252.0	167706.0	15550.0	-5605378.0
16	15	15	50	714	253.0	185866.0	15826.0	-5605505.0
16	15	15	50	714	254.0	194353.0	15466.0	-5606652.0
16	15	15	50	714	255.0	201263.0	15400.0	-5606089.0
16	15	15	50	715	0.0	198021.0	15141.0	-5605222.0
16	15	15	50	715	1.0	187289.0	15061.0	-5605677.0
16	15	15	50	715	2.0	181260.0	15384.0	-5606791.0
16	15	15	50	807	3.0	180360.0	14272.0	-5606052.0
16	15	15	50	808	4.0	174261.0	14013.0	-5605225.0
16	15	15	50	808	5.0	150598.0	13686.0	-5605087.0
16	15	15	50	808	8.0	93041.0	13493.0	-5605174.0
16	15	15	50	808	9.0	76597.0	11512.0	-5606615.0
16	15	15	50	809	10.0	49333.0	10421.0	-5606209.0
16	15	15	50	809	11.0	23712.0	10445.0	-5605339.0
16	15	15	50	809	12.0	-4003.0	12261.0	-5605750.0
16	15	15	50	810	13.0	-16846.0	13141.0	-5606775.0
16	15	15	50	810	14.0	-21026.0	13324.0	-5606064.0
16	15	15	50	810	15.0	-19697.0	13488.0	-5605209.0
16	15	15	50	810	16.0	-21494.0	13474.0	-5605944.0
16	15	15	50	810	30.0	-55504.0	23868.0	-5605000.0
16	15	15	50	811	31.0	-137187.0	24376.0	-5605924.0
16	15	15	50	811	32.0	-178004.0	24765.0	-5606329.0
16	15	15	50	811	33.0	-172162.0	26515.0	-5605436.0
16	15	15	50	811	34.0	-131298.0	27918.0	-5604749.0
16	15	15	50	812	35.0	-92464.0	29743.0	-5605464.0
16	15	15	50	812	36.0	-59748.0	32117.0	-5605954.0
16	15	15	50	812	37.0	-61199.0	34918.0	-5605088.0
16	15	15	50	812	38.0	-108993.0	39263.0	-5604401.0
16	15	15	50	812	39.0	-151057.0	43196.0	-5605390.0
16	15	15	50	813	40.0	-129168.0	45929.0	-5606093.0
16	15	15	50	813	41.0	-92428.0	49214.0	-5605217.0
16	15	15	50	813	42.0	-50198.0	52036.0	-5604861.0
16	15	15	50	813	43.0	-21216.0	55484.0	-5606341.0
16	15	15	50	813	44.0	-18635.0	58083.0	-5606332.0
16	15	15	50	814	45.0	-10712.0	60677.0	-5605434.0
16	15	15	50	814	46.0	-5956.0	63618.0	-5605213.0
16	15	15	50	814	47.0	-16090.0	66947.0	-5606504.0
16	15	15	50	814	48.0	-22878.0	69804.0	-5606203.0
16	15	15	50	814	49.0	-18928.0	72701.0	-5605312.0
16	15	15	50	815	50.0	1638.0	75745.0	-5605209.0
16	15	15	50	815	52.0	17230.0	80172.0	-5606037.0
16	15	15	50	815	53.0	23424.0	82108.0	-5605164.0
16	15	15	50	816	54.0	26346.0	81671.0	-5605046.0
16	15	15	50	816	55.0	33801.0	82313.0	-5606436.0
16	15	15	50	816	56.0	46899.0	83642.0	-5605977.0
16	15	15	50	816	57.0	72246.0	85264.0	-5605159.0
16	15	15	50	817	58.0	90441.0	86486.0	-5605300.0
16	15	15	50	817	59.0	91294.0	87244.0	-5606012.0
16	15	15	50	817	60.0	91469.0	88341.0	-5605339.0
16	15	15	50	817	61.0	146236.0	91277.0	-5605094.0
16	15	15	50	818	62.0	376320.0	92848.0	-5606474.0
16	15	15	50	818	63.0	683673.0	94059.0	-5606091.0
16	15	15	50	818	64.0	824633.0	94376.0	-5605264.0
16	15	15	50	818	65.0	733036.0	94745.0	-5605376.0
16	15	15	50	819	66.0	420589.0	94736.0	-5606619.0
16	15	15	50	819	67.0	-20481.0	94159.0	-5605951.0
16	15	15	50	819	68.0	-409379.0	93708.0	-5605036.0
16	15	15	50	819	69.0	-578303.0	93530.0	-5604916.0
16	15	15	50	820	70.0	-489029.0	91644.0	-5606267.0
16	15	15	50	820	71.0	-239420.0	90138.0	-5605902.0
16	15	15	50	820	72.0	685.0	89096.0	-5605042.0
16	15	15	50	820	73.0	104074.0	87785.0	-5605444.0
16	15	15	50	821	75.0	136003.0	83805.0	-5605728.0
16	15	15	50	911	76.0	67635.0	80781.0	-5604882.0
16	15	15	50	911	77.0	48.0	77809.0	-5605439.0
16	15	15	50	912	78.0	-34139.0	75692.0	-5606292.0
16	15	15	50	912	79.0	-100145.0	73218.0	-5605602.0
16	15	15	50	912	80.0	-152214.0	70524.0	-5604807.0
16	15	15	50	913	81.0	-143158.0	67918.0	-5605682.0
16	15	15	50	913	82.0	-68157.0	65780.0	-5606317.0
16	15	15	50	913	83.0	-52512.0	64581.0	-5605554.0
16	15	15	50	913	84.0	-120987.0	62288.0	-5604667.0
16	15	15	50	914	85.0	-115761.0	59351.0	-5605307.0
16	15	15	50	914	86.0	-73135.0	57034.0	-5606238.0
16	15	15	50	914	87.0	-5991.0	54284.0	-5605562.0
16	15	15	50	914	88.0	47818.0	51257.0	-5604729.0
16	15	15	50	915	89.0	66422.0	48218.0	-5605547.0
16	15	15	50	915	90.0	97648.0	45789.0	-5606402.0
16	15	15	50	915	91.0	133091.0	43449.0	-5605720.0
16	15	15	50	916	92.0	159446.0	40569.0	-5605151.0
16	15	15	50	916	93.0	217111.0	37769.0	-5606011.0
16	15	15	50	916	94.0	156608.0	35279.0	-5605676.0
16	15	15	50	916	95.0	49125.0	32896.0	-5605070.0
16	15	15	50	917	97.0	-31687.0	28067.0	-5606479.0
16	15	15	50	917	98.0	-135975.0	24673.0	-5605556.0
16	15	15	50	917	99.0	-421199.0	20574.0	-5604819.0
16	15	15	50	917	100.0	-562521.0	17316.0	-5605475.0
16	15	15	50	918	101.0	-344699.0	14721.0	-5606159.0
16	15	15	50	918	102.0	13239.0	11922.0	-5605339.0
16	15	15	50	918	103.0	337829.0	9750.0	-5604834.0
16	15	15	50	918	104.0	435709.0	7162.0	-5605910.0
16	15	15	50	919	105.0	286508.0	5278.0	-5606004.0
16	15	15	50	919	106.0	44269.0	4460.0	-5605097.0
16	15	15	50	919	107.0	-136160.0	3358.0	-5605158.0
16	15	15	50	919	108.0	-223961.0	1541.0	-5606438.0
16	15	15	50	920	109.0	-259579.0	-176.0	-5605972.0
16	15	15	50	920	110.0	-301159.0	-1676.0	-5605072.0
16	15	15	50	920	111.0	-343340.0	-3884.0	-5605197.0
16	15	15	50	921	112.0	-361064.0	-6137.0	-5606654.0
16	15	15	50	921	113.0	-345380.0	-8241.0	-5606182.0
16	15	15	50	921	114.0	-274959.0	-9981.0	-5605319.0
16	15	15	50	921	115.0	-166108.0	-11411.0	-5605287.0
16	15	15	50	922	116.0	-37081.0	-13530.0	-5606565.0
16	15	15	50	922	117.0	89123.0	-15132.0	-5606067.0
16	15	15	50	922	118.0	195928.0	-16927.0	-5605234.0
16	15	15	50	923	120.0	240909.0	-19615.0	-5606279.0
16	15	15	50	923	121.0	175925.0	-22582.0	-5605884.0
16	15	15	50	923	122.0	148529.0	-25307.0	-5605079.0
16	15	15	50	923	123.0	157793.0	-27090.0	-5605407.0
16	15	15	50	924	124.0	163841.0	-28839.0	-5606387.0
16	15	15	50	924	125.0	134491.0	-29790.0	-5605649.0
16	15	15	51	13	126.0	100734.0	-31027.0	-5604960.0
16	15	15	51	13	127.0	90691.0	-31950.0	-5605792.0
16	15	15	51	14	128.0	107976.0	-31122.0	-5606326.0
16	15	15	51	14	129.0	130679.0	-31397.0	-5605479.0
16	15	15	51	14	130.0	147196.0	-32394.0	-5604790.0
16	15	15	51	15	131.0	158598.0	-33682.0	-5605573.0
16	15	15	51	15	132.0	163772.0	-34418.0	-5606122.0
16	15	15	51	15	133.0	163993.0	-35728.0	-5605257.0
16	15	15	51	15	134.0	161849.0	-36768.0	-5604682.0
16	15	15	51	16	135.0	158656.0	-37101.0	-5605773.0
16	15	15	51	16	136.0	134284.0	-37855.0	-5606109.0
16	15	15	51	16	137.0	98598.0	-38895.0	-5605219.0
16	15	15	51	16	138.0	74583.0	-39657.0	-5604832.0
16	15	15	51	17	139.0	79325.0	-40747.0	-5606083.0
16	15	15	51	17	140.0	89700.0	-41349.0	-5605989.0
16	15	15	51	17	142.0	104174.0	-43267.0	-5605246.0
16	15	15	51	18	143.0	101470.0	-45242.0	-5606399.0
16	15	15	51	18	144.0	92908.0	-47646.0	-5605853.0
16	15	15	51	18	145.0	77125.0	-49304.0	-5604991.0
16	15	15	51	18	146.0	63437.0	-50404.0	-5605282.0
16	15	15	51	19	147.0	58256.0	-51244.0	-5606414.0
16	15	15	51	19	148.0	65841.0	-52297.0	-5605787.0
16	15	15	51	19	149.0	71372.0	-53787.0	-5604957.0
16	15	15	51	20	150.0	71484.0	-54392.0	-5605091.0
16	15	15	51	20	151.0	66901.0	-53248.0	-5605799.0
16	15	15	51	20	152.0	57036.0	-53913.0	-5605108.0
16	15	15	51	20	153.0	54158.0	-53949.0	-5604953.0
16	15	15	51	21	154.0	47046.0	-54233.0	-5606248.0
16	15	15	51	21	155.0	40003.0	-54974.0	-5605802.0
16	15	15	51	21	156.0	28731.0	-55622.0	-5604999.0
16	15	15	51	21	157.0	13611.0	-56343.0	-5605252.0
16	15	15	51	22	158.0	8611.0	-56751.0	-5606349.0
16	15	15	51	22	159.0	9263.0	-56399.0	-5605665.0
16	15	15	51	22	160.0	8579.0	-56746.0	-5604866.0
16	15	15	51	23	161.0	337.0	-56853.0	-5605557.0
16	15	15	51	23	162.0	4414.0	-57345.0	-5606114.0
16	15	15	51	23	163.0	17582.0	-57744.0	-5605276.0
16	15	15	51	23	165.0	64824.0	-56931.0	-5605139.0
16	15	15	51	24	166.0	88167.0	-58814.0	-5605886.0
16	15	15	51	24	167.0	88478.0	-59437.0	-5605172.0
16	15	15	51	24	168.0	77206.0	-59621.0	-5604422.0
16	15	15	51	25	169.0	52484.0	-59669.0	-5605527.0
16	15	15	51	25	170.0	28993.0	-59457.0	-5605886.0
16	15	15	51	117	171.0	27091.0	-59592.0	-5605114.0
16	15	15	51	117	172.0	9874.0	-59014.0	-5604639.0
16	15	15	51	118	173.0	-16880.0	-57312.0	-5606078.0
16	15	15	51	118	174.0	-41921.0	-56128.0	-5605914.0
16	15	15	51	118	175.0	-64427.0	-55344.0	-5605127.0
16	15	15	51	118	176.0	-92797.0	-54086.0	-5604716.0
16	15	15	51	119	177.0	-102043.0	-53324.0	-5605729.0
16	15	15	51	119	178.0	-113752.0	-52794.0	-5605256.0
16	15	15	51	119	179.0	-79608.0	-51987.0	-5604574.0
16	15	15	51	120	180.0	-37254.0	-51342.0	-5605496.0
16	15	15	51	120	181.0	-2034.0	-50734.0	-5605929.0
16	15	15	51	120	182.0	12521.0	-49819.0	-5605025.0
16	15	15	51	120	183.0	-37915.0	-48889.0	-5604622.0
16	15	15	51	121	184.0	-103395.0	-48284.0	-5605906.0
16	15	15	51	121	185.0	-131825.0	-47329.0	-5605837.0
16	15	15	51	121	187.0	-79262.0	-45177.0	-5604677.0
16	15	15	51	122	188.0	-35411.0	-45199.0	-5606066.0
16	15	15	51	122	189.0	8474.0	-46167.0	-5605889.0
16	15	15	51	122	190.0	52954.0	-46149.0	-5604986.0
16	15	15	51	123	191.0	104509.0	-45442.0	-5604707.0
16	15	15	51	123	192.0	88071.0	-44892.0	-5606081.0
16	15	15	51	123	193.0	-12574.0	-43889.0	-5605883.0
16	15	15	51	123	194.0	-33744.0	-42841.0	-5604969.0
16	15	15	51	124	195.0	18201.0	-41020.0	-5605007.0
16	15	15	51	124	196.0	30096.0	-37814.0	-5606331.0
16	15	15	51	124	197.0	26340.0	-36807.0	-5605841.0
16	15	15	51	124	198.0	-15596.0	-35493.0	-5604949.0
16	15	15	51	125	199.0	-75287.0	-34607.0	-5604942.0
16	15	15	51	125	200.0	-116887.0	-33530.0	-5606132.0
16	15	15	51	125	201.0	-136524.0	-32553.0	-5605614.0
16	15	15	51	126	202.0	-131872.0	-31479.0	-5604831.0
16	15	15	51	126	203.0	-108230.0	-30517.0	-5605452.0
16	15	15	51	126	204.0	-71664.0	-29333.0	-5605740.0
16	15	15	51	126	205.0	-41588.0	-28202.0	-5604982.0
16	15	15	51	127	206.0	-67974.0	-27540.0	-5605067.0
16	15	15	51	127	207.0	-82528.0	-26756.0	-5606457.0
16	15	15	51	127	208.0	-66020.0	-25815.0	-5605832.0
16	15	15	51	127	210.0	-48365.0	-24513.0	-5605544.0
16	15	15	51	128	211.0	-54534.0	-25364.0	-5606747.0
16	15	15	51	128	212.0	-64634.0	-25734.0	-5606034.0
16	15	15	51	128	213.0	-69594.0	-25390.0	-5605204.0
16	15	15	51	129	214.0	-71689.0	-25385.0	-5605177.0
16	15	15	51	129	215.0	-72311.0	-24886.0	-5606404.0
16	15	15	51	129	216.0	-65372.0	-23488.0	-5605857.0
16	15	15	51	129	217.0	-55996.0	-21199.0	-5605016.0
16	15	15	51	130	218.0	-52149.0	-20168.0	-5605276.0
16	15	15	51	130	219.0	-56105.0	-19759.0	-5606400.0
16	15	15	51	130	220.0	-57669.0	-18934.0	-5605732.0
16	15	15	51	131	221.0	-56741.0	-18173.0	-5605047.0
16	15	15	51	131	222.0	-54198.0	-17587.0	-5606112.0
16	15	15	51	132	223.0	-50591.0	-17271.0	-5606532.0
16	15	15	51	132	224.0	-39965.0	-16392.0	-5605722.0
16	15	15	51	132	225.0	-17303.0	-15955.0	-5605183.0
16	15	15	51	132	226.0	-849.0	-15571.0	-5606532.0
16	15	15	51	133	232.0	91043.0	-13411.0	-5605507.0
16	15	15	51	133	233.0	44723.0	-14122.0	-5604831.0
16	15	15	51	133	234.0	-5980.0	-15480.0	-5606157.0
16	15	15	51	133	235.0	30503.0	-15686.0	-5606312.0
16	15	15	51	134	236.0	85347.0	-15670.0	-5605530.0
16	15	15	51	134	237.0	147052.0	-15402.0	-5604981.0
16	15	15	51	134	238.0	217221.0	-15147.0	-5605794.0
16	15	15	51	222	239.0	191951.0	-15329.0	-5605370.0
16	15	15	51	223	240.0	122016.0	-14469.0	-5604814.0
16	15	15	51	223	241.0	63805.0	-12482.0	-5606028.0
16	15	15	51	223	242.0	38073.0	-11697.0	-5606227.0
16	15	15	51	224	243.0	27499.0	-11501.0	-5605299.0
16	15	15	51	224	244.0	17924.0	-11120.0	-5604851.0
16	15	15	51	224	245.0	5656.0	-10585.0	-5606093.0
16	15	15	51	224	246.0	30051.0	-9816.0	-5606141.0
16	15	15	51	225	247.0	104388.0	-9624.0	-5605217.0
16	15	15	51	225	248.0	154926.0	-9323.0	-5604679.0
16	15	15	51	225	249.0	198254.0	-9584.0	-5605749.0
16	15	15	51	225	250.0	189392.0	-9359.0	-5605887.0
16	15	15	51	226	251.0	137447.0	-8858.0	-5604992.0
16	15	15	51	226	252.0	76045.0	-8304.0	-5605166.0
16	15	15	51	226	253.0	62558.0	-8140.0	-5606316.0
16	15	15	51	226	255.0	72307.0	-8275.0	-5604841.0
16	15	15	51	227	0.0	82663.0	-9448.0	-5605156.0
16	15	15	51	227	1.0	58319.0	-10166.0	-5606255.0
16	15	15	51	227	2.0	2984.0	-10477.0	-5605659.0
16	15	15	51	227	3.0	-61148.0	-10477.0	-5604711.0
16	15	15	51	228	4.0	-72404.0	-10496.0	-5604686.0
16	15	15	51	228	5.0	-26256.0	-10231.0	-5605888.0
16	15	15	51	228	6.0	23916.0	-9257.0	-5605389.0
16	15	15	51	229	7.0	29853.0	-7487.0	-5604551.0
16	15	15	51	229	8.0	11334.0	-6936.0	-5605251.0
16	15	15	51	229	9.0	329.0	-6254.0	-5606083.0
16	15	15	51	229	10.0	-27692.0	-5532.0	-5605312.0
16	15	15	51	230	11.0	-42743.0	-5303.0	-5604646.0
16	15	15	51	230	12.0	-74297.0	-5333.0	-5605797.0
16	15	15	51	230	13.0	-113933.0	-5141.0	-5606241.0
16	15	15	51	230	14.0	-130188.0	-5071.0	-5605401.0
16	15	15	51	231	15.0	-115076.0	-4869.0	-5604774.0
16	15	15	51	231	16.0	-84614.0	-4057.0	-5605967.0
16	15	15	51	231	17.0	-61022.0	-3289.0	-5606276.0
16	15	15	51	232	18.0	-52581.0	-3164.0	-5605420.0
16	15	15	51	232	19.0	-49558.0	-3189.0	-5604774.0
16	15	15	51	232	21.0	-51771.0	-2242.0	-5606056.0
16	15	15	51	233	22.0	-58056.0	-3341.0	-5605158.0
16	15	15	51	233	23.0	-44944.0	-4911.0	-5604636.0
16	15	15	51	233	24.0	35471.0	-5241.0	-5605796.0
16	15	15	51	234	25.0	122629.0	-5039.0	-5605960.0
16	15	15	51	234	26.0	182949.0	-5054.0	-5605036.0
16	15	15	51	332	27.0	203038.0	-4710.0	-5605033.0
16	15	15	51	333	28.0	162924.0	-4365.0	-5606189.0
16	15	15	51	333	29.0	79383.0	-2519.0	-5605698.0
16	15	15	51	333	30.0	-5689.0	-857.0	-5604820.0
16	15	15	51	334	31.0	-48119.0	-387.0	-5604898.0
16	15	15	51	334	32.0	-52952.0	-191.0	-5606165.0
16	15	15	51	335	33.0	-37347.0	696.0	-5605693.0
16	15	15	51	335	34.0	-2474.0	1355.0	-5604767.0
16	15	15	51	335	35.0	22223.0	1091.0	-5604737.0
16	15	15	51	335	36.0	32509.0	1527.0	-5606116.0
16	15	15	51	336	37.0	30977.0	2032.0	-5605754.0
16	15	15	51	336	38.0	18991.0	2346.0	-5604828.0
16	15	15	51	336	39.0	12828.0	2680.0	-5605007.0
16	15	15	51	336	40.0	5219.0	2835.0	-5606200.0
16	15	15	51	337	41.0	2480.0	3430.0	-5605684.0
16	15	15	51	337	44.0	3308.0	4085.0	-5606352.0
16	15	15	51	337	45.0	-36362.0	2479.0	-5605662.0
16	15	15	51	337	46.0	-59795.0	2001.0	-5604848.0
16	15	15	51	338	47.0	-49826.0	1714.0	-5605317.0
16	15	15	51	338	48.0	-10995.0	1788.0	-5605478.0
16	15	15	51	338	49.0	47909.0	2329.0	-5604723.0
16	15	15	51	338	50.0	86938.0	2390.0	-5604934.0
16	15	15	51	338	51.0	92558.0	2946.0	-5606091.0
16	15	15	51	339	52.0	53431.0	5206.0	-5605401.0
16	15	15	51	339	53.0	-54930.0	6063.0	-5604622.0
16	15	15	51	339	54.0	-173132.0	7296.0	-5604960.0
16	15	15	51	339	55.0	-178192.0	7772.0	-5605959.0
16	15	15	51	340	56.0	-109189.0	7181.0	-5605226.0
16	15	15	51	340	57.0	-32489.0	7331.0	-5604465.0
16	15	15	51	340	58.0	9201.0	7891.0	-5604990.0
16	15	15	51	341	59.0	7022.0	8308.0	-5605666.0
16	15	15	51	341	60.0	-3754.0	8716.0	-5604867.0
16	15	15	51	341	61.0	-15172.0	8941.0	-5604282.0
16	15	15	51	342	62.0	-27571.0	9368.0	-5605537.0
16	15	15	51	342	63.0	-29727.0	9831.0	-5605891.0
16	15	15	51	342	64.0	-49485.0	10098.0	-5605035.0
16	15	15	51	343	66.0	-66201.0	9863.0	-5605581.0
16	15	15	51	343	67.0	-69177.0	8853.0	-5605600.0
16	15	15	51	343	68.0	-63356.0	7557.0	-5604789.0
16	15	15	51	343	69.0	-45172.0	7478.0	-5604127.0
16	15	15	51	344	70.0	-24738.0	7413.0	-5605369.0
16	15	15	51	344	71.0	2293.0	7239.0	-5605604.0
16	15	15	51	344	72.0	23323.0	7536.0	-5604801.0
16	15	15	51	345	73.0	51691.0	8284.0	-5604079.0
16	15	15	51	345	74.0	82046.0	10169.0	-5605202.0
16	15	15	51	345	75.0	100274.0	11046.0	-5605389.0
16	15	15	51	345	76.0	116779.0	11194.0	-5604586.0
16	15	15	51	346	77.0	134014.0	11599.0	-5604241.0
16	15	15	51	346	78.0	148386.0	12379.0	-5605162.0
16	15	15	51	446	79.0	150373.0	12978.0	-5604604.0
16	15	15	51	446	80.0	134380.0	12748.0	-5604243.0
16	15	15	51	446	81.0	87826.0	13138.0	-5605610.0
16	15	15	51	447	82.0	19934.0	13332.0	-5605522.0
16	15	15	51	447	83.0	-23029.0	13079.0	-5604551.0
16	15	15	51	447	84.0	-28682.0	13819.0	-5604036.0
16	15	15	51	448	85.0	1446.0	14538.0	-5605088.0
16	15	15	51	448	86.0	-14845.0	14709.0	-5605226.0
16	15	15	51	448	88.0	-339256.0	14279.0	-5604139.0
16	15	15	51	449	89.0	-364561.0	13804.0	-5605572.0
16	15	15	51	449	90.0	-366536.0	12328.0	-5605323.0
16	15	15	51	449	91.0	-316136.0	11605.0	-5604434.0
16	15	15	51	449	92.0	-160791.0	11410.0	-5604541.0
16	15	15	51	450	93.0	-18094.0	11342.0	-5605915.0
16	15	15	51	450	94.0	51673.0	11337.0	-5605513.0
16	15	15	51	450	95.0	118791.0	11037.0	-5604653.0
16	15	15	51	450	96.0	180124.0	11273.0	-5605227.0
16	15	15	51	451	97.0	207628.0	13048.0	-5606126.0
16	15	15	51	451	98.0	200317.0	13808.0	-5605441.0
16	15	15	51	451	99.0	157029.0	14168.0	-5604541.0
16	15	15	51	452	100.0	27662.0	14626.0	-5604839.0
16	15	15	51	452	101.0	39032.0	15111.0	-5606011.0
16	15	15	51	452	102.0	158799.0	14971.0	-5605407.0
16	15	15	51	453	103.0	215648.0	15144.0	-5604613.0
16	15	15	51	453	104.0	140492.0	15417.0	-5604872.0
16	15	15	51	453	105.0	-94013.0	15668.0	-5605476.0
16	15	15	51	453	106.0	-377763.0	15130.0	-5604772.0
16	15	15	51	454	107.0	-575311.0	15473.0	-5605229.0
16	15	15	51	454	108.0	-904639.0	15497.0	-5606366.0
16	15	15	51	454	109.0	-1063741.0	15529.0	-5605638.0
16	15	15	51	454	111.0	-307959.0	15868.0	-5605490.0
16	15	15	51	455	112.0	328143.0	14527.0	-5606547.0
16	15	15	51	455	113.0	770693.0	13174.0	-5605860.0
16	15	15	51	455	114.0	916951.0	14898.0	-5605044.0
16	15	15	51	455	115.0	858135.0	15817.0	-5605145.0
16	15	15	51	456	133.0	159338.0	17528.0	-5605208.0
16	15	15	51	456	134.0	212584.0	16788.0	-5604517.0
16	15	15	51	456	135.0	232563.0	15062.0	-5605360.0
16	15	15	51	457	136.0	214883.0	14312.0	-5605149.0
16	15	15	51	457	137.0	96303.0	13670.0	-5604532.0
16	15	15	51	457	138.0	-74299.0	13785.0	-5605395.0
16	15	15	51	457	139.0	-237844.0	13532.0	-5605616.0
16	15	15	51	552	140.0	-348290.0	12925.0	-5604738.0
16	15	15	51	552	141.0	-378608.0	13773.0	-5604452.0
16	15	15	51	552	142.0	-337686.0	15110.0	-5605771.0
16	15	15	51	553	143.0	-258934.0	15123.0	-5605609.0
16	15	15	51	553	144.0	-168527.0	15996.0	-5604686.0
16	15	15	51	553	145.0	-65431.0	16576.0	-5604676.0
16	15	15	51	554	146.0	29601.0	16412.0	-5606075.0
16	15	15	51	554	147.0	100766.0	16121.0	-5605692.0
16	15	15	51	554	148.0	197949.0	16803.0	-5604766.0
16	15	15	51	554	149.0	297126.0	16924.0	-5604665.0
16	15	15	51	555	150.0	304449.0	16745.0	-5605977.0
16	15	15	51	555	151.0	253259.0	16313.0	-5605575.0
16	15	15	51	555	152.0	183153.0	16529.0	-5604681.0
16	15	15	51	555	153.0	128221.0	16445.0	-5604811.0
16	15	15	51	556	154.0	120821.0	16492.0	-5606042.0
16	15	15	51	556	156.0	96181.0	16359.0	-5604649.0
16	15	15	51	556	157.0	44422.0	14563.0	-5605128.0
16	15	15	51	557	158.0	50763.0	13061.0	-5605499.0
16	15	15	51	557	159.0	88744.0	12754.0	-5604760.0
16	15	15	51	557	160.0	135813.0	12712.0	-5604345.0
16	15	15	51	557	161.0	129210.0	12590.0	-5605498.0
16	15	15	51	558	162.0	57521.0	12234.0	-5605114.0
16	15	15	51	558	163.0	35553.0	12269.0	-5604268.0
16	15	15	51	558	164.0	51825.0	13936.0	-5604256.0
16	15	15	51	558	165.0	66724.0	14752.0	-5605539.0
16	15	15	51	559	166.0	61943.0	14851.0	-5604998.0
16	15	15	51	559	167.0	47936.0	14768.0	-5604139.0
16	15	15	51	559	168.0	75707.0	14505.0	-5604584.0
16	15	15	51	559	169.0	112043.0	14473.0	-5605627.0
16	15	15	51	560	170.0	98103.0	14553.0	-5604969.0
16	15	15	51	560	171.0	48547.0	14545.0	-5604176.0
16	15	15	51	560	172.0	-17389.0	14616.0	-5604887.0
16	15	15	51	560	173.0	-44162.0	14820.0	-5605691.0
16	15	15	51	561	174.0	-25156.0	14878.0	-5604948.0
16	15	15	51	561	175.0	-30202.0	14499.0	-5604155.0
16	15	15	51	562	176.0	-82787.0	14886.0	-5605034.0
16	15	15	51	562	178.0	-86107.0	14866.0	-5604673.0
16	15	15	51	562	179.0	-19860.0	14791.0	-5603870.0
16	15	15	51	562	180.0	2408.0	13756.0	-5604897.0
16	15	15	51	563	181.0	545.0	13441.0	-5605417.0
16	15	15	51	563	182.0	6001.0	13698.0	-5604674.0
16	15	15	51	563	183.0	44782.0	14298.0	-5604107.0
16	15	15	51	564	184.0	26413.0	14721.0	-5605474.0
16	15	15	51	564	185.0	75459.0	15839.0	-5605429.0
16	15	15	51	564	186.0	99738.0	17508.0	-5604627.0
16	15	15	51	656	187.0	41467.0	20501.0	-5604446.0
16	15	15	51	657	188.0	-12131.0	22037.0	-5605822.0
16	15	15	51	657	189.0	-36756.0	24049.0	-5605325.0
16	15	15	51	658	190.0	145824.0	25749.0	-5604571.0
16	15	15	51	658	191.0	234446.0	27843.0	-5604711.0
16	15	15	51	659	192.0	-66147.0	30245.0	-5605768.0
16	15	15	51	659	193.0	-257001.0	32490.0	-5605032.0
16	15	15	51	659	194.0	-318134.0	34363.0	-5604263.0
16	15	15	51	660	195.0	-238234.0	36836.0	-5604782.0
16	15	15	51	660	196.0	-92603.0	38618.0	-5605812.0
16	15	15	51	660	197.0	-63601.0	40574.0	-5605023.0
16	15	15	51	661	198.0	-66114.0	42871.0	-5604266.0
16	15	15	51	661	199.0	-50198.0	45783.0	-5605019.0
16	15	15	51	661	201.0	-65452.0	50453.0	-5604868.0
16	15	15	51	662	202.0	-111896.0	51569.0	-5604168.0
16	15	15	51	662	203.0	-144986.0	53224.0	-5605026.0
16	15	15	51	663	204.0	-141901.0	55469.0	-5605331.0
16	15	15	51	663	205.0	-117696.0	57810.0	-5604437.0
16	15	15	51	663	206.0	-89034.0	60646.0	-5604087.0
16	15	15	51	663	207.0	-60926.0	63439.0	-5605405.0
16	15	15	51	664	208.0	-9412.0	66141.0	-5605171.0
16	15	15	51	664	209.0	56764.0	70777.0	-5604360.0
16	15	15	51	664	210.0	94345.0	74371.0	-5604007.0
16	15	15	51	665	211.0	96708.0	77935.0	-5605360.0
16	15	15	51	665	212.0	74720.0	80482.0	-5605072.0
16	15	15	51	665	213.0	50301.0	82424.0	-5604237.0
16	15	15	51	666	214.0	26911.0	84827.0	-5604279.0
16	15	15	51	666	215.0	4580.0	86691.0	-5605425.0
16	15	15	51	666	216.0	42386.0	88301.0	-5604779.0
16	15	15	51	667	217.0	87368.0	90129.0	-5603942.0
16	15	15	51	667	218.0	59822.0	91599.0	-5603659.0
16	15	15	51	667	219.0	53179.0	93252.0	-5604435.0
16	15	15	51	668	220.0	40766.0	94403.0	-5603861.0
16	15	15	51	668	221.0	30531.0	95016.0	-5604177.0
16	15	15	51	668	223.0	5486.0	95396.0	-5604681.0
16	15	15	51	669	224.0	29245.0	94968.0	-5603815.0
16	15	15	51	669	225.0	91780.0	92719.0	-5604355.0
16	15	15	51	669	226.0	137327.0	92283.0	-5605477.0
16	15	15	51	670	227.0	143015.0	91552.0	-5604797.0
16	15	15	51	670	228.0	117333.0	90073.0	-5603901.0
16	15	15	51	670	229.0	89591.0	89416.0	-5604235.0
16	15	15	51	671	230.0	93934.0	88731.0	-5605344.0
16	15	15	51	671	231.0	114254.0	88441.0	-5604743.0
16	15	15	51	671	232.0	144585.0	89081.0	-5603886.0
16	15	15	51	672	233.0	172169.0	88331.0	-5604517.0
16	15	15	51	672	234.0	145399.0	86625.0	-5605146.0
16	15	15	51	672	235.0	169346.0	84426.0	-5604439.0
16	15	15	51	673	236.0	186398.0	82235.0	-5604056.0
16	15	15	51	673	237.0	134503.0	80112.0	-5605562.0
16	15	15	51	673	238.0	94723.0	78306.0	-5605270.0
16	15	15	51	674	239.0	91928.0	75858.0	-5604485.0
16	15	15	51	674	240.0	143606.0	72861.0	-5603832.0
16	15	15	51	675	241.0	200063.0	70899.0	-5605144.0
16	15	15	51	675	242.0	220552.0	68686.0	-5605222.0
16	15	15	51	675	243.0	216630.0	66129.0	-5604368.0
16	15	15	51	675	244.0	165039.0	62931.0	-5604096.0
16	15	15	51	676	246.0	113748.0	56755.0	-5605126.0
16	15	15	51	676	247.0	131729.0	52507.0	-5604321.0
16	15	15	51	676	248.0	103985.0	48448.0	-5604339.0
16	15	15	51	677	249.0	143666.0	45132.0	-5605775.0
16	15	15	51	677	250.0	180644.0	42256.0	-5605268.0
16	15	15	51	677	251.0	148861.0	39391.0	-5604447.0
16	15	15	51	757	252.0	91816.0	36293.0	-5604613.0
16	15	15	51	757	253.0	16212.0	33665.0	-5605641.0
16	15	15	51	758	254.0	-34844.0	32714.0	-5604954.0
16	15	15	51	758	255.0	-59974.0	30799.0	-5604327.0
16	15	15	51	758	0.0	-115619.0	28546.0	-5605462.0
16	15	15	51	759	1.0	-230050.0	25706.0	-5605734.0
16	15	15	51	759	2.0	-422840.0	22653.0	-5604865.0
16	15	15	51	759	3.0	-579110.0	20065.0	-5604059.0
16	15	15	51	759	4.0	-435273.0	17562.0	-5604891.0
16	15	15	51	760	5.0	-110939.0	14771.0	-5605578.0
16	15	15	51	760	6.0	175824.0	12616.0	-5604831.0
16	15	15	51	760	7.0	344373.0	10402.0	-5604137.0
16	15	15	51	760	8.0	314231.0	8074.0	-5605391.0
16	15	15	51	761	9.0	156854.0	5803.0	-5605863.0
16	15	15	51	761	10.0	2994.0	3824.0	-5605066.0
16	15	15	51	761	12.0	-163637.0	-329.0	-5605878.0
16	15	15	51	762	13.0	-210502.0	-3045.0	-5605829.0
16	15	15	51	762	14.0	-273556.0	-6617.0	-5605007.0
16	15	15	51	762	15.0	-284149.0	-8864.0	-5604652.0
16	15	15	51	762	16.0	-250273.0	-11200.0	-5605916.0
16	15	15	51	763	17.0	-166850.0	-13304.0	-5605476.0
16	15	15	51	763	18.0	-65051.0	-15061.0	-5604677.0
16	15	15	51	763	19.0	58773.0	-16749.0	-5604069.0
16	15	15	51	764	20.0	75043.0	-17608.0	-5605539.0
16	15	15	51	764	21.0	148911.0	-17560.0	-5605534.0
16	15	15	51	764	22.0	272871.0	-18709.0	-5604747.0
16	15	15	51	764	23.0	322405.0	-19076.0	-5604744.0
16	15	15	51	765	24.0	332212.0	-19828.0	-5605841.0
16	15	15	51	765	25.0	254652.0	-21051.0	-5605147.0
16	15	15	51	765	26.0	129691.0	-22365.0	-5604442.0
16	15	15	51	765	27.0	91424.0	-23344.0	-5605255.0
16	15	15	51	766	28.0	82243.0	-24818.0	-5605784.0
16	15	15	51	766	29.0	-21041.0	-26298.0	-5604913.0
16	15	15	51	766	30.0	-78030.0	-27013.0	-5604392.0
16	15	15	51	767	31.0	-8966.0	-28201.0	-5605651.0
16	15	15	51	767	32.0	53528.0	-29249.0	-5605872.0
16	15	15	51	767	33.0	107368.0	-29581.0	-5604977.0
16	15	15	51	767	35.0	-6072.0	-31946.0	-5605184.0
16	15	15	51	768	36.0	-130039.0	-34594.0	-5605769.0
16	15	15	51	768	37.0	-136230.0	-36512.0	-5604929.0
16	15	15	51	768	38.0	-105379.0	-37791.0	-5604369.0
16	15	15	51	769	39.0	-113543.0	-38958.0	-5605671.0
16	15	15	51	769	40.0	-85942.0	-39849.0	-5605858.0
16	15	15	51	852	41.0	-95448.0	-40458.0	-5604987.0
16	15	15	51	852	42.0	-131346.0	-40487.0	-5604497.0
16	15	15	51	853	43.0	-158987.0	-39599.0	-5605700.0
16	15	15	51	853	44.0	-183924.0	-39901.0	-5605522.0
16	15	15	51	853	45.0	-167473.0	-40462.0	-5604637.0
16	15	15	51	854	46.0	-87789.0	-41157.0	-5604611.0
16	15	15	51	854	47.0	3054.0	-42355.0	-5605923.0
16	15	15	51	854	48.0	4789.0	-43977.0	-5605364.0
16	15	15	51	855	49.0	-59070.0	-45017.0	-5604532.0
16	15	15	51	855	50.0	-70138.0	-45536.0	-5604626.0
16	15	15	51	855	51.0	-62655.0	-45597.0	-5605247.0
16	15	15	51	856	52.0	-66624.0	-46559.0	-5604543.0
16	15	15	51	856	53.0	-54606.0	-47089.0	-5604075.0
16	15	15	51	856	54.0	-23719.0	-48084.0	-5605246.0
16	15	15	51	856	55.0	31212.0	-48994.0	-5605074.0
16	15	15	51	857	57.0	-5784.0	-50365.0	-5604071.0
16	15	15	51	857	58.0	-7547.0	-52295.0	-5605277.0
16	15	15	51	857	59.0	-44951.0	-54258.0	-5604846.0
16	15	15	51	857	60.0	-58941.0	-54380.0	-5604052.0
16	15	15	51	858	61.0	-7028.0	-54871.0	-5604711.0
16	15	15	51	858	62.0	13698.0	-54254.0	-5605234.0
16	15	15	51	858	63.0	17161.0	-53481.0	-5604467.0
16	15	15	51	859	64.0	-23837.0	-53516.0	-5603724.0
16	15	15	51	859	65.0	-31385.0	-53437.0	-5604644.0
16	15	15	51	859	66.0	30646.0	-53706.0	-5604931.0
16	15	15	51	859	67.0	92886.0	-53987.0	-5604119.0
16	15	15	51	860	68.0	108298.0	-53857.0	-5603380.0
16	15	15	51	860	80.0	71688.0	-51417.0	-5604697.0
16	15	15	51	860	81.0	98671.0	-52717.0	-5604967.0
16	15	15	51	860	82.0	126315.0	-53111.0	-5604063.0
16	15	15	51	861	83.0	138774.0	-52396.0	-5603504.0
16	15	15	51	861	84.0	109438.0	-51591.0	-5604584.0
16	15	15	51	861	85.0	73509.0	-51340.0	-5604732.0
16	15	15	51	967	86.0	39492.0	-50617.0	-5603819.0
16	15	15	51	967	87.0	1426.0	-49406.0	-5603421.0
16	15	15	51	968	88.0	-58842.0	-46862.0	-5604737.0
16	15	15	51	968	89.0	-128276.0	-45632.0	-5604635.0
16	15	15	51	969	90.0	-177135.0	-44570.0	-5603744.0
16	15	15	51	969	91.0	-186302.0	-43401.0	-5603779.0
16	15	15	51	969	92.0	-148512.0	-42856.0	-5604977.0
16	15	15	51	970	93.0	-86086.0	-41829.0	-5604477.0
16	15	15	51	970	94.0	-41317.0	-40479.0	-5603572.0
16	15	15	51	970	95.0	-18696.0	-39254.0	-5603914.0
16	15	15	51	970	96.0	-9929.0	-38379.0	-5605131.0
16	15	15	51	971	97.0	-17088.0	-37733.0	-5604512.0
16	15	15	52	75	98.0	-52064.0	-36757.0	-5603626.0
16	15	15	52	76	99.0	-82329.0	-36329.0	-5603868.0
16	15	15	52	76	102.0	78363.0	-32834.0	-5603477.0
16	15	15	52	76	103.0	127383.0	-33492.0	-5603869.0
16	15	15	52	77	104.0	87100.0	-34276.0	-5604912.0
16	15	15	52	77	105.0	24449.0	-33817.0	-5604160.0
16	15	15	52	77	106.0	-8436.0	-32714.0	-5603511.0
16	15	15	52	78	107.0	-15799.0	-30145.0	-5604586.0
16	15	15	52	78	108.0	-10039.0	-28627.0	-5604807.0
16	15	15	52	78	109.0	-1546.0	-27686.0	-5603942.0
16	15	15	52	79	110.0	3264.0	-26575.0	-5603604.0
16	15	15	52	79	111.0	-1242.0	-25826.0	-5604959.0
16	15	15	52	79	112.0	-2786.0	-25059.0	-5604754.0
16	15	15	52	79	125.0	8112.0	-15392.0	-5603949.0
16	15	15	52	80	147.0	13188.0	-10412.0	-5604801.0
16	15	15	52	80	169.0	43503.0	-5547.0	-5604944.0
16	15	15	52	80	170.0	43306.0	-6635.0	-5605267.0
16	15	15	52	81	171.0	-34800.0	-8046.0	-5604506.0
16	15	15	52	81	172.0	-81051.0	-8617.0	-5604076.0
16	15	15	52	81	173.0	-51348.0	-8384.0	-5604984.0
16	15	15	52	82	174.0	-21229.0	-8390.0	-5604501.0
16	15	15	52	82	175.0	-4773.0	-8228.0	-5603891.0
16	15	15	52	82	176.0	-8056.0	-8092.0	-5604831.0
16	15	15	52	82	177.0	-13634.0	-7320.0	-5605061.0
16	15	15	52	83	178.0	-4557.0	-5546.0	-5604139.0
16	15	15	52	83	179.0	19223.0	-4252.0	-5603627.0
16	15	15	52	83	180.0	39768.0	-4077.0	-5604804.0
16	15	15	52	84	181.0	58193.0	-4009.0	-5604867.0
16	15	15	52	84	182.0	66880.0	-3382.0	-5603956.0
16	15	15	52	84	183.0	75872.0	-3229.0	-5603506.0
16	15	15	52	85	184.0	84560.0	-3114.0	-5604642.0
16	15	15	52	85	185.0	87672.0	-2397.0	-5604631.0
16	15	15	52	85	186.0	94317.0	-2582.0	-5603723.0
16	15	15	52	86	187.0	103853.0	-2464.0	-5603781.0
16	15	15	52	86	188.0	18766.0	-2116.0	-5604990.0
16	15	15	52	86	189.0	-11801.0	-1428.0	-5604512.0
16	15	15	52	87	190.0	-9.0	-1049.0	-5603591.0
16	15	15	52	87	192.0	-9101.0	-1017.0	-5604961.0
16	15	15	52	88	193.0	-31221.0	-2606.0	-5604375.0
16	15	15	52	88	194.0	-9229.0	-3779.0	-5603475.0
16	15	15	52	88	195.0	-46146.0	-3846.0	-5603511.0
16	15	15	52	89	196.0	-53572.0	-3548.0	-5604606.0
16	15	15	52	89	197.0	-15672.0	-3324.0	-5604001.0
16	15	15	52	179	198.0	8063.0	-3376.0	-5603159.0
16	15	15	52	180	199.0	67079.0	-2702.0	-5603530.0
16	15	15	52	180	200.0	110361.0	-565.0	-5604549.0
16	15	15	52	180	201.0	118308.0	105.0	-5603832.0
16	15	15	52	181	202.0	102022.0	554.0	-5603217.0
16	15	15	52	181	203.0	73159.0	1541.0	-5604416.0
16	15	15	52	181	204.0	45283.0	1889.0	-5604697.0
16	15	15	52	182	205.0	24658.0	2199.0	-5603852.0
16	15	15	52	182	206.0	21478.0	2724.0	-5603392.0
16	15	15	52	182	207.0	25747.0	3069.0	-5604649.0
16	15	15	52	183	208.0	30024.0	3312.0	-5604494.0
16	15	15	52	183	209.0	33813.0	3723.0	-5603641.0
16	15	15	52	183	210.0	34141.0	3977.0	-5603452.0
16	15	15	52	184	211.0	70625.0	4493.0	-5604851.0
16	15	15	52	184	212.0	112464.0	4916.0	-5604585.0
16	15	15	52	184	237.0	736373.0	11071.0	-5603618.0
16	15	15	52	185	238.0	750391.0	9261.0	-5604577.0
16	15	15	52	185	239.0	672518.0	8099.0	-5605075.0
16	15	15	52	185	240.0	530036.0	8056.0	-5604281.0
16	15	15	52	186	241.0	316185.0	8140.0	-5603523.0
16	15	15	52	186	242.0	41704.0	8131.0	-5604497.0
16	15	15	52	284	243.0	-254405.0	8094.0	-5605054.0
16	15	15	52	284	244.0	-478456.0	8996.0	-5604183.0
16	15	15	52	284	245.0	-527991.0	10994.0	-5603457.0
16	15	15	52	285	246.0	-413702.0	11576.0	-5604322.0
16	15	15	52	285	247.0	-193953.0	12191.0	-5604886.0
16	15	15	52	285	248.0	79793.0	12349.0	-5604044.0
16	15	15	52	286	249.0	248050.0	12353.0	-5603605.0
16	15	15	52	286	250.0	232943.0	12267.0	-5604955.0
16	15	15	52	286	251.0	81501.0	12700.0	-5605029.0
16	15	15	52	286	252.0	-122206.0	13243.0	-5604119.0
16	15	15	52	286	253.0	-243744.0	13470.0	-5603790.0
16	15	15	52	287	254.0	-234652.0	13176.0	-5605072.0
16	15	15	52	287	255.0	-117092.0	13728.0	-5604882.0
16	15	15	52	287	0.0	49379.0	13989.0	-5604009.0
16	15	15	52	287	1.0	205191.0	14316.0	-5604116.0
16	15	15	52	288	3.0	298598.0	14934.0	-5604986.0
16	15	15	52	288	4.0	184723.0	14033.0	-5604016.0
16	15	15	52	288	5.0	30546.0	12497.0	-5603807.0
16	15	15	52	288	6.0	-95134.0	11898.0	-5605041.0
16	15	15	52	288	7.0	-179879.0	11829.0	-5604719.0
16	15	15	52	289	8.0	-220469.0	12139.0	-5603816.0
16	15	15	52	289	9.0	-226549.0	11800.0	-5604042.0
16	15	15	52	289	10.0	-210272.0	11913.0	-5605312.0
16	15	15	52	290	11.0	-180740.0	13698.0	-5604779.0
16	15	15	52	290	12.0	-122964.0	14707.0	-5603904.0
16	15	15	52	290	13.0	-94830.0	14563.0	-5604514.0
16	15	15	52	290	14.0	-98824.0	15358.0	-5605431.0
16	15	15	52	291	15.0	-26118.0	15656.0	-5604751.0
16	15	15	52	291	16.0	64840.0	16105.0	-5603902.0
16	15	15	52	291	17.0	104938.0	15888.0	-5604444.0
16	15	15	52	292	18.0	68979.0	16094.0	-5605317.0
16	15	15	52	292	19.0	6451.0	16518.0	-5604576.0
16	15	15	52	292	20.0	-44551.0	16543.0	-5603741.0
16	15	15	52	292	21.0	-75141.0	16586.0	-5604254.0
16	15	15	52	293	26.0	42688.0	16368.0	-5604111.0
16	15	15	52	293	27.0	66155.0	14717.0	-5603446.0
16	15	15	52	293	28.0	78533.0	13506.0	-5604034.0
16	15	15	52	294	29.0	81801.0	13017.0	-5605039.0
16	15	15	52	294	30.0	96866.0	12879.0	-5604306.0
16	15	15	52	294	31.0	137959.0	12410.0	-5603579.0
16	15	15	52	294	32.0	183387.0	12003.0	-5604501.0
16	15	15	52	295	33.0	225137.0	12414.0	-5605006.0
16	15	15	52	295	34.0	234631.0	14107.0	-5604205.0
16	15	15	52	295	35.0	163586.0	15408.0	-5603336.0
16	15	15	52	296	36.0	150718.0	15490.0	-5604169.0
16	15	15	52	296	37.0	155903.0	15622.0	-5605071.0
16	15	15	52	296	38.0	167356.0	15551.0	-5604340.0
16	15	15	52	297	39.0	182123.0	15893.0	-5603517.0
16	15	15	52	297	40.0	177006.0	15664.0	-5604324.0
16	15	15	52	297	41.0	168795.0	16213.0	-5604869.0
16	15	15	52	298	42.0	176848.0	16421.0	-5604134.0
16	15	15	52	298	43.0	192809.0	16474.0	-5603586.0
16	15	15	52	298	44.0	188331.0	16356.0	-5604979.0
16	15	15	52	298	45.0	180467.0	16594.0	-5604956.0
16	15	15	52	299	46.0	180063.0	17164.0	-5604169.0
16	15	15	52	299	48.0	137101.0	18226.0	-5604894.0
16	15	15	52	299	49.0	143291.0	17747.0	-5604852.0
16	15	15	52	300	50.0	170370.0	16450.0	-5604070.0
16	15	15	52	300	51.0	168868.0	16543.0	-5603439.0
16	15	15	52	300	52.0	160363.0	17213.0	-5604797.0
16	15	15	52	301	53.0	110426.0	17601.0	-5604742.0
16	15	15	52	301	54.0	55896.0	18214.0	-5603915.0
16	15	15	52	390	55.0	54213.0	19471.0	-5603281.0
16	15	15	52	390	56.0	41595.0	21506.0	-5604496.0
16	15	15	52	391	57.0	22052.0	24979.0	-5604532.0
16	15	15	52	391	58.0	90422.0	27135.0	-5603764.0
16	15	15	52	391	59.0	131999.0	28873.0	-5604204.0
16	15	15	52	392	60.0	59919.0	30453.0	-5605072.0
16	15	15	52	392	61.0	-70580.0	32841.0	-5604256.0
16	15	15	52	392	62.0	-180011.0	35165.0	-5603550.0
16	15	15	52	392	63.0	-247525.0	37088.0	-5604325.0
16	15	15	52	393	64.0	-192375.0	39598.0	-5604839.0
16	15	15	52	393	65.0	-74731.0	42103.0	-5603995.0
16	15	15	52	393	66.0	-9293.0	44126.0	-5603226.0
16	15	15	52	393	67.0	15551.0	46886.0	-5603714.0
16	15	15	52	394	68.0	33454.0	49693.0	-5604660.0
16	15	15	52	394	69.0	55141.0	51874.0	-5603899.0
16	15	15	52	394	71.0	59708.0	56749.0	-5603860.0
16	15	15	52	395	78.0	37308.0	75912.0	-5602936.0
16	15	15	52	395	79.0	58231.0	77388.0	-5604458.0
16	15	15	52	395	80.0	94404.0	77649.0	-5604108.0
16	15	15	52	395	81.0	71881.0	79046.0	-5603284.0
16	15	15	52	396	82.0	16364.0	80993.0	-5603113.0
16	15	15	52	396	83.0	32370.0	83098.0	-5603898.0
16	15	15	52	396	84.0	31303.0	84434.0	-5603213.0
16	15	15	52	396	85.0	38809.0	86209.0	-5602767.0
16	15	15	52	397	86.0	35804.0	88921.0	-5604162.0
16	15	15	52	397	87.0	23264.0	88723.0	-5604256.0
16	15	15	52	397	88.0	34473.0	89904.0	-5603351.0
16	15	15	52	398	89.0	66402.0	92431.0	-5602887.0
16	15	15	52	398	90.0	97668.0	92873.0	-5604152.0
16	15	15	52	398	91.0	113603.0	93069.0	-5604229.0
16	15	15	52	398	92.0	102974.0	93392.0	-5603344.0
16	15	15	52	399	93.0	83377.0	93702.0	-5603439.0
16	15	15	52	399	94.0	62229.0	92131.0	-5604769.0
16	15	15	52	399	95.0	45613.0	89992.0	-5604324.0
16	15	15	52	400	96.0	25398.0	89001.0	-5603392.0
16	15	15	52	400	97.0	2192.0	89609.0	-5603477.0
16	15	15	52	400	98.0	-23383.0	90048.0	-5604772.0
16	15	15	52	400	99.0	-43766.0	88966.0	-5604306.0
16	15	15	52	401	100.0	-43863.0	87075.0	-5603417.0
16	15	15	52	401	101.0	-31447.0	85765.0	-5603346.0
16	15	15	52	401	102.0	-11920.0	82402.0	-5604562.0
16	15	15	52	497	103.0	9440.0	79659.0	-5604159.0
16	15	15	52	497	104.0	21759.0	78670.0	-5603257.0
16	15	15	52	498	105.0	23656.0	78379.0	-5603552.0
16	15	15	52	498	106.0	13512.0	76168.0	-5604669.0
16	15	15	52	499	107.0	509.0	74343.0	-5604067.0
16	15	15	52	500	108.0	-1985.0	71786.0	-5603216.0
16	15	15	52	500	109.0	6745.0	67951.0	-5604071.0
16	15	15	52	501	110.0	21288.0	63446.0	-5605007.0
16	15	15	52	501	111.0	37479.0	61306.0	-5604299.0
16	15	15	52	502	112.0	53598.0	60774.0	-5603512.0
16	15	15	52	502	113.0	58426.0	58608.0	-5604041.0
16	15	15	52	503	114.0	61010.0	55902.0	-5604206.0
16	15	15	52	503	115.0	56926.0	53597.0	-5603399.0
16	15	15	52	503	116.0	43122.0	50472.0	-5603534.0
16	15	15	52	503	117.0	24908.0	45743.0	-5604908.0
16	15	15	52	504	118.0	76.0	42359.0	-5604289.0
16	15	15	52	504	119.0	-38082.0	40600.0	-5603470.0
16	15	15	52	504	120.0	-94435.0	38673.0	-5603711.0
16	15	15	52	505	121.0	-211381.0	36028.0	-5604811.0
16	15	15	52	505	122.0	-427366.0	33000.0	-5604123.0
16	15	15	52	505	123.0	-561336.0	30157.0	-5603412.0
16	15	15	52	506	124.0	-354413.0	26428.0	-5604295.0
16	15	15	52	506	125.0	20232.0	22303.0	-5604654.0
16	15	15	52	506	126.0	304210.0	19728.0	-5603836.0
16	15	15	52	507	127.0	411153.0	18172.0	-5603154.0
16	15	15	52	507	128.0	279563.0	16431.0	-5604201.0
16	15	15	52	507	129.0	57866.0	14002.0	-5604581.0
16	15	15	52	507	130.0	-95958.0	11991.0	-5603722.0
16	15	15	52	508	131.0	-151170.0	9721.0	-5603176.0
16	15	15	52	508	132.0	-127366.0	5359.0	-5604742.0
16	15	15	52	508	133.0	-98018.0	2628.0	-5604819.0
16	15	15	52	509	134.0	-106364.0	1555.0	-5604012.0
16	15	15	52	509	135.0	-142971.0	691.0	-5603324.0
16	15	15	52	509	136.0	-170467.0	-1015.0	-5604529.0
16	15	15	52	510	137.0	-183529.0	-2659.0	-5604574.0
16	15	15	52	510	138.0	-194220.0	-4734.0	-5603789.0
16	15	15	52	510	139.0	-179962.0	-7546.0	-5603489.0
16	15	15	52	511	140.0	-153341.0	-10966.0	-5604499.0
16	15	15	52	512	141.0	-117987.0	-12276.0	-5603971.0
16	15	15	52	512	142.0	-76341.0	-12350.0	-5603446.0
16	15	15	52	513	143.0	-44492.0	-13641.0	-5604786.0
16	15	15	52	513	144.0	-5777.0	-15224.0	-5605043.0
16	15	15	52	513	145.0	17534.0	-16334.0	-5604165.0
16	15	15	52	514	146.0	23934.0	-17914.0	-5603454.0
16	15	15	52	514	147.0	22071.0	-20904.0	-5604265.0
16	15	15	52	514	148.0	16876.0	-22547.0	-5604851.0
16	15	15	52	515	149.0	13298.0	-22763.0	-5603951.0
16	15	15	52	515	150.0	13326.0	-23471.0	-5603329.0
16	15	15	52	515	151.0	14828.0	-24159.0	-5604429.0
16	15	15	52	516	152.0	15556.0	-25282.0	-5604946.0
16	15	15	52	516	153.0	17159.0	-26082.0	-5604046.0
16	15	15	52	516	154.0	17175.0	-28237.0	-5603653.0
16	15	15	52	517	155.0	22946.0	-30477.0	-5604914.0
16	15	15	52	517	156.0	23517.0	-31494.0	-5604827.0
16	15	15	52	517	157.0	19846.0	-31207.0	-5603893.0
16	15	15	52	518	158.0	13473.0	-31536.0	-5603610.0
16	15	15	52	518	159.0	1140.0	-32316.0	-5604988.0
16	15	15	52	518	160.0	-11616.0	-33735.0	-5604817.0
16	15	15	52	611	161.0	-24774.0	-34928.0	-5603899.0
16	15	15	52	612	162.0	-32197.0	-37696.0	-5604164.0
16	15	15	52	612	163.0	-36717.0	-38831.0	-5605535.0
16	15	15	52	612	164.0	-35274.0	-38175.0	-5604970.0
16	15	15	52	613	165.0	-17956.0	-38316.0	-5604079.0
16	15	15	52	613	166.0	5794.0	-38767.0	-5603824.0
16	15	15	52	613	167.0	15138.0	-39564.0	-5605046.0
16	15	15	52	614	168.0	11877.0	-40274.0	-5604661.0
16	15	15	52	614	169.0	19909.0	-41596.0	-5603834.0
16	15	15	52	614	170.0	24348.0	-44249.0	-5603816.0
16	15	15	52	614	171.0	36366.0	-45786.0	-5605014.0
16	15	15	52	615	172.0	50506.0	-46093.0	-5604499.0
16	15	15	52	615	173.0	62802.0	-45453.0	-5603647.0
16	15	15	52	615	174.0	78749.0	-45931.0	-5603877.0
16	15	15	52	615	175.0	96151.0	-46131.0	-5604428.0
16	15	15	52	615	176.0	100009.0	-46829.0	-5603731.0
16	15	15	52	616	177.0	94593.0	-49221.0	-5604134.0
16	15	15	52	616	178.0	90310.0	-49741.0	-5605229.0
16	15	15	52	616	179.0	84784.0	-49129.0	-5604484.0
16	15	15	52	616	180.0	79364.0	-49442.0	-5603604.0
16	15	15	52	617	181.0	75849.0	-49868.0	-5603836.0
16	15	15	52	617	182.0	72779.0	-49841.0	-5604841.0
16	15	15	52	617	183.0	69698.0	-50251.0	-5604197.0
16	15	15	52	618	184.0	62037.0	-52062.0	-5603366.0
16	15	15	52	618	185.0	54313.0	-53556.0	-5603967.0
16	15	15	52	618	186.0	37044.0	-53852.0	-5604569.0
16	15	15	52	618	187.0	16708.0	-51981.0	-5603827.0
16	15	15	52	619	188.0	-9069.0	-50982.0	-5603155.0
16	15	15	52	619	189.0	-29699.0	-51146.0	-5604277.0
16	15	15	52	619	190.0	-41526.0	-51389.0	-5604467.0
16	15	15	52	619	191.0	-44013.0	-51392.0	-5603647.0
16	15	15	52	620	192.0	-37410.0	-53231.0	-5603488.0
16	15	15	52	620	193.0	-26330.0	-53520.0	-5604624.0
16	15	15	52	620	194.0	-2593.0	-51559.0	-5604047.0
16	15	15	52	621	195.0	15166.0	-50112.0	-5603234.0
16	15	15	52	621	196.0	33379.0	-49889.0	-5603795.0
16	15	15	52	621	197.0	42530.0	-49116.0	-5604863.0
16	15	15	52	622	198.0	46180.0	-49220.0	-5604055.0
16	15	15	52	622	199.0	46001.0	-50092.0	-5603346.0
16	15	15	52	622	200.0	32764.0	-50445.0	-5604257.0
16	15	15	52	622	201.0	27083.0	-49649.0	-5605109.0
16	15	15	52	623	202.0	24006.0	-47386.0	-5604220.0
16	15	15	52	623	203.0	26764.0	-46169.0	-5603787.0
16	15	15	52	623	204.0	18814.0	-45487.0	-5605317.0
16	15	15	52	624	205.0	20277.0	-44721.0	-5605463.0
16	15	15	52	624	206.0	20646.0	-43923.0	-5604531.0
16	15	15	52	720	207.0	9064.0	-45452.0	-5603955.0
16	15	15	52	720	208.0	-10414.0	-44991.0	-5605143.0
16	15	15	52	721	209.0	-29065.0	-43035.0	-5605548.0
16	15	15	52	721	210.0	-38111.0	-41046.0	-5604654.0
16	15	15	52	722	211.0	-40685.0	-40514.0	-5604047.0
16	15	15	52	722	212.0	-40738.0	-39849.0	-5605102.0
16	15	15	52	722	213.0	-29355.0	-39329.0	-5605402.0
16	15	15	52	723	214.0	-2267.0	-39371.0	-5604484.0
16	15	15	52	723	215.0	8446.0	-37759.0	-5604096.0
16	15	15	52	723	216.0	-5227.0	-36352.0	-5605469.0
16	15	15	52	724	217.0	-20234.0	-35459.0	-5605407.0
16	15	15	52	724	218.0	-22867.0	-34884.0	-5604540.0
16	15	15	52	724	219.0	243.0	-34035.0	-5604478.0
16	15	15	52	724	220.0	31154.0	-33417.0	-5605832.0
16	15	15	52	725	221.0	62819.0	-32909.0	-5605422.0
16	15	15	52	725	222.0	81598.0	-33911.0	-5604521.0
16	15	15	52	725	223.0	67498.0	-34007.0	-5604928.0
16	15	15	52	726	224.0	41868.0	-33277.0	-5605979.0
16	15	15	52	726	225.0	14620.0	-32532.0	-5605282.0
16	15	15	52	726	226.0	4359.0	-31267.0	-5604421.0
16	15	15	52	726	227.0	14639.0	-28776.0	-5604139.0
16	15	15	52	727	228.0	28166.0	-27514.0	-5605572.0
16	15	15	52	727	229.0	36028.0	-27690.0	-5605198.0
16	15	15	52	727	230.0	22308.0	-26732.0	-5604369.0
16	15	15	52	728	231.0	-758.0	-24531.0	-5604234.0
16	15	15	52	728	232.0	-18281.0	-23517.0	-5605056.0
16	15	15	52	728	233.0	-26841.0	-22625.0	-5604404.0
16	15	15	52	728	234.0	-16276.0	-21874.0	-5603959.0
16	15	15	52	729	235.0	-1069.0	-20360.0	-5605190.0
16	15	15	52	729	236.0	-15968.0	-20002.0	-5605031.0
16	15	15	52	729	237.0	-52796.0	-21194.0	-5604137.0
16	15	15	52	730	238.0	-86328.0	-21232.0	-5604161.0
16	15	15	52	730	239.0	-88113.0	-20168.0	-5605485.0
16	15	15	52	730	240.0	-52480.0	-18119.0	-5604987.0
16	15	15	52	731	241.0	-5160.0	-17169.0	-5604124.0
16	15	15	52	731	242.0	22369.0	-16402.0	-5604747.0
16	15	15	52	731	243.0	14274.0	-15619.0	-5605631.0
16	15	15	52	732	244.0	-10009.0	-16006.0	-5604929.0
16	15	15	52	732	245.0	-26803.0	-16931.0	-5604011.0
16	15	15	52	733	246.0	-32542.0	-15043.0	-5604436.0
16	15	15	52	733	247.0	-54579.0	-13642.0	-5605361.0
16	15	15	52	733	248.0	-96186.0	-12707.0	-5604708.0
16	15	15	52	734	249.0	-130971.0	-11776.0	-5603870.0
16	15	15	52	734	250.0	-131817.0	-11104.0	-5604776.0
16	15	15	52	734	251.0	-92789.0	-11302.0	-5605471.0
16	15	15	52	735	252.0	-58071.0	-12751.0	-5604725.0
16	15	15	52	735	253.0	-37147.0	-12753.0	-5604015.0
16	15	15	52	735	254.0	-37912.0	-12011.0	-5604789.0
16	15	15	52	736	255.0	-29070.0	-10075.0	-5604681.0
16	15	15	52	736	0.0	-7234.0	-9657.0	-5603978.0
16	15	15	52	736	1.0	7971.0	-9706.0	-5604714.0
16	15	15	52	736	2.0	11725.0	-9273.0	-5605706.0
16	15	15	52	737	3.0	11293.0	-10586.0	-5604846.0
16	15	15	52	737	4.0	17087.0	-11387.0	-5604097.0
16	15	15	52	738	5.0	27834.0	-9492.0	-5604696.0
16	15	15	52	738	6.0	42092.0	-8314.0	-5605516.0
16	15	15	52	830	7.0	49445.0	-8189.0	-5604692.0
16	15	15	52	830	8.0	49909.0	-8134.0	-5603941.0
16	15	15	52	831	9.0	39323.0	-7954.0	-5604760.0
16	15	15	52	831	10.0	17421.0	-7582.0	-5605483.0
16	15	15	52	831	11.0	9714.0	-7319.0	-5604650.0
16	15	15	52	832	12.0	19946.0	-6637.0	-5604036.0
16	15	15	52	832	13.0	39822.0	-6709.0	-5605149.0
16	15	15	52	832	14.0	60977.0	-6549.0	-5605442.0
16	15	15	52	832	15.0	78048.0	-6434.0	-5604555.0
16	15	15	52	833	16.0	108243.0	-6922.0	-5604174.0
16	15	15	52	833	17.0	143368.0	-6804.0	-5605437.0
16	15	15	52	833	18.0	163806.0	-8164.0	-5605175.0
16	15	15	52	834	19.0	180085.0	-9419.0	-5604313.0
16	15	15	52	834	20.0	203792.0	-9537.0	-5603624.0
16	15	15	52	834	21.0	243701.0	-9807.0	-5605075.0
16	15	15	52	834	22.0	286248.0	-10310.0	-5605441.0
16	15	15	52	835	23.0	327010.0	-10049.0	-5604627.0
16	15	15	52	835	24.0	362558.0	-8533.0	-5604027.0
16	15	15	52	835	25.0	399627.0	-8138.0	-5605270.0
16	15	15	52	835	26.0	424633.0	-8684.0	-5605163.0
16	15	15	52	836	27.0	423258.0	-6709.0	-5604394.0
16	15	15	52	836	28.0	411163.0	-5991.0	-5604810.0
16	15	15	52	836	29.0	385005.0	-5972.0	-5606003.0
16	15	15	52	836	30.0	354626.0	-5601.0	-5605254.0
16	15	15	52	836	31.0	327583.0	-5331.0	-5604536.0
16	15	15	52	837	32.0	312901.0	-4732.0	-5605313.0
16	15	15	52	837	33.0	287135.0	-6232.0	-5606086.0
16	15	15	52	837	34.0	251598.0	-7456.0	-5605234.0
16	15	15	52	838	35.0	222290.0	-7211.0	-5604456.0
16	15	15	52	838	36.0	186334.0	-5824.0	-5604968.0
16	15	15	52	838	37.0	142323.0	-4479.0	-5605751.0
16	15	15	52	839	38.0	95303.0	-4036.0	-5604911.0
16	15	15	52	839	39.0	63189.0	-4215.0	-5604217.0
16	15	15	52	840	40.0	49632.0	-4163.0	-5605019.0
16	15	15	52	840	41.0	48689.0	-5583.0	-5605515.0
16	15	15	52	840	42.0	48577.0	-5756.0	-5604673.0
16	15	15	52	841	43.0	40826.0	-3977.0	-5604250.0
16	15	15	52	841	44.0	37584.0	-2739.0	-5605370.0
16	15	15	52	842	45.0	32319.0	-2069.0	-5605198.0
16	15	15	52	842	46.0	33149.0	-1966.0	-5604287.0
16	15	15	52	842	47.0	32016.0	-1928.0	-5604231.0
16	15	15	52	843	48.0	26201.0	-3032.0	-5605646.0
16	15	15	52	843	49.0	18709.0	-3379.0	-5605242.0
16	15	15	52	843	50.0	18710.0	-2481.0	-5604336.0
16	15	15	52	844	51.0	28250.0	-761.0	-5604024.0
16	15	15	52	844	52.0	46305.0	-81.0	-5605324.0
16	15	15	52	844	53.0	71283.0	675.0	-5604952.0
16	15	15	52	845	54.0	82441.0	853.0	-5604126.0
16	15	15	52	845	55.0	87589.0	64.0	-5604291.0
16	15	15	52	846	56.0	87704.0	-1460.0	-5605049.0
16	15	15	52	846	57.0	85581.0	-1277.0	-5604351.0
16	15	15	52	846	58.0	85313.0	589.0	-5603994.0
16	15	15	52	847	59.0	74359.0	1558.0	-5605424.0
16	15	15	52	847	60.0	59011.0	2584.0	-5605154.0
16	15	15	52	847	61.0	37475.0	2872.0	-5604320.0
16	15	15	52	848	62.0	28288.0	2467.0	-5604243.0
16	15	15	52	848	63.0	25893.0	2738.0	-5605406.0
16	15	15	52	848	64.0	31026.0	3424.0	-5604853.0
16	15	15	52	849	65.0	43636.0	3591.0	-5604019.0
16	15	15	52	849	66.0	54235.0	3684.0	-5604467.0
16	15	15	52	850	67.0	63655.0	3679.0	-5605488.0
16	15	15	52	850	68.0	79848.0	3714.0	-5604813.0
16	15	15	52	851	69.0	103140.0	3995.0	-5603929.0
16	15	15	52	851	70.0	119230.0	3452.0	-5604251.0
16	15	15	52	851	71.0	124058.0	2261.0	-5605377.0
16	15	15	52	852	72.0	115441.0	2162.0	-5604802.0
16	15	15	52	852	73.0	106107.0	1732.0	-5603893.0
16	15	15	52	853	74.0	91107.0	1659.0	-5604356.0
16	15	15	52	853	75.0	76673.0	1816.0	-5605379.0
16	15	15	52	853	76.0	66448.0	2688.0	-5604703.0
16	15	15	52	954	77.0	49959.0	4734.0	-5603917.0
16	15	15	52	954	78.0	19075.0	4128.0	-5605062.0
16	15	15	52	955	79.0	-33390.0	5839.0	-5605478.0
16	15	15	52	955	80.0	-98330.0	6773.0	-5604701.0
16	15	15	52	955	81.0	-170417.0	6850.0	-5603882.0
16	15	15	52	956	82.0	-233674.0	7335.0	-5604964.0
16	15	15	52	956	83.0	-275832.0	7765.0	-5605482.0
16	15	15	52	956	84.0	-301875.0	8007.0	-5604700.0
16	15	15	52	956	85.0	-327951.0	7388.0	-5604027.0
16	15	15	52	957	86.0	-360291.0	5529.0	-5605272.0
16	15	15	52	957	87.0	-382969.0	5299.0	-5605326.0
16	15	15	52	957	88.0	-409695.0	5833.0	-5604524.0
16	15	15	52	958	89.0	-431479.0	7683.0	-5603759.0
16	15	15	52	958	90.0	-455152.0	8123.0	-5604343.0
16	15	15	52	958	91.0	-472098.0	8102.0	-5604257.0
16	15	15	52	958	92.0	-472084.0	8343.0	-5603679.0
16	15	15	52	959	93.0	-456532.0	6921.0	-5604893.0
16	15	15	52	959	94.0	-424091.0	6283.0	-5605300.0
16	15	15	52	959	95.0	-367731.0	7609.0	-5604402.0
16	15	15	52	960	96.0	-267331.0	8541.0	-5604032.0
16	15	15	52	960	97.0	-184497.0	8943.0	-5605186.0
16	15	15	52	960	98.0	-202426.0	9308.0	-5605025.0
16	15	15	52	960	99.0	-324677.0	9827.0	-5604059.0
16	15	15	52	961	100.0	-470788.0	9062.0	-5603661.0
16	15	15	52	961	101.0	-604943.0	7563.0	-5605039.0
16	15	15	52	961	102.0	-853568.0	7418.0	-5604936.0
16	15	15	52	962	103.0	-1141281.0	9159.0	-5604031.0
16	15	15	52	962	104.0	-1290594.0	10046.0	-5603738.0
16	15	15	52	962	105.0	-1220261.0	10201.0	-5605327.0
16	15	15	52	962	106.0	-958303.0	11046.0	-5605201.0
16	15	15	52	963	107.0	-589683.0	10962.0	-5604399.0
16	15	15	52	963	108.0	-198957.0	9494.0	-5604552.0
16	15	15	52	963	109.0	147600.0	8672.0	-5605751.0
16	15	15	52	964	110.0	388093.0	9499.0	-5605187.0
16	15	15	52	964	111.0	512716.0	11224.0	-5604357.0
16	15	15	52	964	112.0	545424.0	11844.0	-5604743.0
16	15	15	52	965	113.0	482136.0	12255.0	-5605809.0
16	15	15	52	965	114.0	326049.0	11737.0	-5605076.0
16	15	15	52	965	115.0	106468.0	10794.0	-5604182.0
16	15	15	52	966	116.0	-166561.0	9371.0	-5604011.0
16	15	15	52	966	117.0	-484453.0	9520.0	-5604816.0
16	15	15	52	966	118.0	-669016.0	11504.0	-5604172.0
16	15	15	52	967	119.0	-609208.0	11702.0	-5603964.0
16	15	15	52	967	120.0	-378066.0	12127.0	-5605343.0
16	15	15	52	967	121.0	-14648.0	12267.0	-5605056.0
16	15	15	52	968	122.0	289629.0	12419.0	-5604204.0
16	15	15	52	968	123.0	352053.0	11041.0	-5604589.0
16	15	15	53	78	124.0	197092.0	10497.0	-5605777.0
16	15	15	53	79	125.0	-39072.0	11289.0	-5605132.0
16	15	15	53	79	126.0	-169188.0	12883.0	-5604242.0
16	15	15	53	79	127.0	-150736.0	13235.0	-5604687.0
16	15	15	53	80	128.0	-76621.0	13720.0	-5605710.0
16	15	15	53	80	129.0	5210.0	14309.0	-5605046.0
16	15	15	53	80	130.0	89056.0	14166.0	-5604155.0
16	15	15	53	80	131.0	194211.0	12304.0	-5604481.0
16	15	15	53	81	132.0	257584.0	12024.0	-5605527.0
16	15	15	53	81	133.0	224954.0	14137.0	-5604924.0
16	15	15	53	81	134.0	104112.0	15151.0	-5604074.0
16	15	15	53	82	135.0	-42730.0	14856.0	-5604976.0
16	15	15	53	82	136.0	-165041.0	15135.0	-5605637.0
16	15	15	53	82	137.0	-249220.0	15039.0	-5604899.0
16	15	15	53	83	138.0	-290247.0	13405.0	-5604122.0
16	15	15	53	83	139.0	-288929.0	12933.0	-5605244.0
16	15	15	53	83	140.0	-248329.0	13469.0	-5605856.0
16	15	15	53	83	141.0	-171482.0	14651.0	-5605124.0
16	15	15	53	84	142.0	-92382.0	15655.0	-5604322.0
16	15	15	53	84	143.0	-32863.0	15918.0	-5605278.0
16	15	15	53	84	144.0	-2027.0	16018.0	-5605741.0
16	15	15	53	84	145.0	25986.0	15524.0	-5604996.0
16	15	15	53	85	146.0	53121.0	14001.0	-5604224.0
16	15	15	53	85	147.0	62794.0	14051.0	-5605023.0
16	15	15	53	85	148.0	59973.0	15956.0	-5605072.0
16	15	15	53	85	149.0	63576.0	15473.0	-5604329.0
16	15	15	53	86	150.0	102591.0	15394.0	-5604931.0
16	15	15	53	86	151.0	158497.0	15570.0	-5606079.0
16	15	15	53	86	152.0	198060.0	15974.0	-5605304.0
16	15	15	53	86	153.0	232923.0	14236.0	-5604554.0
16	15	15	53	86	154.0	290176.0	13321.0	-5604949.0
16	15	15	53	87	155.0	357122.0	14254.0	-5605783.0
16	15	15	53	87	156.0	386559.0	15193.0	-5604982.0
16	15	15	53	87	157.0	397831.0	15528.0	-5604364.0
16	15	15	53	88	158.0	406953.0	16278.0	-5605463.0
16	15	15	53	88	159.0	398800.0	15986.0	-5605961.0
16	15	15	53	88	160.0	380933.0	14848.0	-5605064.0
16	15	15	53	89	161.0	356477.0	13313.0	-5604402.0
16	15	15	53	89	162.0	328417.0	13513.0	-5605491.0
16	15	15	53	89	163.0	299622.0	15269.0	-5605904.0
16	15	15	53	90	164.0	278825.0	15815.0	-5605050.0
16	15	15	53	90	165.0	268584.0	16239.0	-5604456.0
16	15	15	53	90	166.0	267939.0	16155.0	-5605511.0
16	15	15	53	91	167.0	251993.0	15576.0	-5605542.0
16	15	15	53	91	168.0	246562.0	13791.0	-5604694.0
16	15	15	53	92	169.0	257635.0	13263.0	-5604222.0
16	15	15	53	92	170.0	261859.0	14634.0	-5605589.0
16	15	15	53	92	171.0	251058.0	15443.0	-5605474.0
16	15	15	53	93	172.0	230804.0	15347.0	-5604639.0
16	15	15	53	93	173.0	200464.0	15839.0	-5604924.0
16	15	15	53	93	174.0	166260.0	16313.0	-5606202.0
16	15	15	53	94	175.0	149267.0	15083.0	-5605516.0
16	15	15	53	94	176.0	141455.0	13412.0	-5604711.0
16	15	15	53	95	177.0	134673.0	13722.0	-5604692.0
16	15	15	53	95	178.0	137861.0	15543.0	-5605397.0
16	15	15	53	95	179.0	137509.0	16389.0	-5604682.0
16	15	15	53	96	180.0	115971.0	16856.0	-5604169.0
16	15	15	53	96	181.0	91259.0	17925.0	-5605372.0
16	15	15	53	96	182.0	67269.0	18269.0	-5605376.0
16	15	15	53	97	183.0	24006.0	17343.0	-5604484.0
16	15	15	53	97	184.0	-17122.0	17813.0	-5604504.0
16	15	15	53	97	185.0	-42973.0	20149.0	-5605737.0
16	15	15	53	98	186.0	-27614.0	22918.0	-5605235.0
16	15	15	53	98	187.0	-83829.0	24730.0	-5604370.0
16	15	15	53	99	188.0	-176534.0	26724.0	-5604751.0
16	15	15	53	99	189.0	-255742.0	28411.0	-5605642.0
16	15	15	53	100	190.0	-264152.0	29277.0	-5604982.0
16	15	15	53	100	191.0	-206729.0	30074.0	-5604151.0
16	15	15	53	100	192.0	-157022.0	32163.0	-5605037.0
16	15	15	53	101	193.0	-150999.0	35637.0	-5605669.0
16	15	15	53	101	194.0	-165990.0	38303.0	-5604916.0
16	15	15	53	102	195.0	-179299.0	41372.0	-5604026.0
16	15	15	53	102	196.0	-184453.0	43736.0	-5604802.0
16	15	15	53	102	197.0	-184074.0	45921.0	-5605366.0
16	15	15	53	207	198.0	-197109.0	46589.0	-5604614.0
16	15	15	53	207	199.0	-251755.0	48425.0	-5603860.0
16	15	15	53	207	200.0	-304428.0	52205.0	-5604976.0
16	15	15	53	207	201.0	-204034.0	55362.0	-5605389.0
16	15	15	53	208	202.0	-62775.0	58071.0	-5604601.0
16	15	15	53	208	203.0	30607.0	60765.0	-5604556.0
16	15	15	53	208	204.0	33626.0	63078.0	-5605859.0
16	15	15	53	208	205.0	-75264.0	64352.0	-5605294.0
16	15	15	53	209	206.0	-194959.0	65518.0	-5604512.0
16	15	15	53	209	207.0	-241304.0	68197.0	-5604514.0
16	15	15	53	209	208.0	-190647.0	72425.0	-5605916.0
16	15	15	53	210	209.0	-91094.0	75825.0	-5605382.0
16	15	15	53	210	210.0	15520.0	77817.0	-5604575.0
16	15	15	53	210	211.0	64816.0	80189.0	-5604566.0
16	15	15	53	210	212.0	36117.0	81908.0	-5605897.0
16	15	15	53	211	213.0	-20787.0	81929.0	-5605376.0
16	15	15	53	211	214.0	-61966.0	83323.0	-5604524.0
16	15	15	53	211	215.0	-73412.0	86156.0	-5604920.0
16	15	15	53	212	216.0	-58422.0	87819.0	-5605895.0
16	15	15	53	212	217.0	-14577.0	89583.0	-5605204.0
16	15	15	53	212	218.0	15172.0	90819.0	-5604397.0
16	15	15	53	213	219.0	26498.0	91317.0	-5605140.0
16	15	15	53	213	220.0	25118.0	90201.0	-5605936.0
16	15	15	53	213	221.0	7539.0	88953.0	-5605175.0
16	15	15	53	214	222.0	12540.0	88451.0	-5604438.0
16	15	15	53	214	223.0	51726.0	88884.0	-5605491.0
16	15	15	53	214	224.0	94445.0	89884.0	-5605821.0
16	15	15	53	214	225.0	75833.0	89266.0	-5605039.0
16	15	15	53	215	226.0	6872.0	88513.0	-5604200.0
16	15	15	53	215	227.0	-39783.0	87384.0	-5605083.0
16	15	15	53	215	228.0	-36352.0	84014.0	-5605747.0
16	15	15	53	216	229.0	-3187.0	82136.0	-5605024.0
16	15	15	53	216	230.0	7302.0	82387.0	-5604191.0
16	15	15	53	216	231.0	-23079.0	80771.0	-5605084.0
16	15	15	53	217	232.0	-59947.0	79288.0	-5605716.0
16	15	15	53	217	233.0	-57871.0	77289.0	-5605004.0
16	15	15	53	218	234.0	15086.0	74526.0	-5604467.0
16	15	15	53	218	235.0	109060.0	71124.0	-5605807.0
16	15	15	53	218	236.0	146862.0	67595.0	-5605757.0
16	15	15	53	219	237.0	153277.0	65489.0	-5604990.0
16	15	15	53	219	238.0	187551.0	64879.0	-5604278.0
16	15	15	53	220	239.0	233611.0	63243.0	-5604953.0
16	15	15	53	220	240.0	239654.0	60398.0	-5604782.0
16	15	15	53	221	241.0	218024.0	57801.0	-5604152.0
16	15	15	53	221	242.0	193796.0	54859.0	-5605191.0
16	15	15	53	221	243.0	174956.0	50049.0	-5605673.0
16	15	15	53	222	244.0	158254.0	46514.0	-5604739.0
16	15	15	53	222	245.0	133508.0	45313.0	-5604112.0
16	15	15	53	222	246.0	103138.0	43136.0	-5605188.0
16	15	15	53	223	247.0	53768.0	39935.0	-5605465.0
16	15	15	53	223	248.0	-53722.0	36730.0	-5604571.0
16	15	15	53	223	249.0	-226739.0	34052.0	-5603896.0
16	15	15	53	224	250.0	-323124.0	30164.0	-5604844.0
16	15	15	53	224	251.0	-146409.0	26349.0	-5605256.0
16	15	15	53	224	252.0	209008.0	24028.0	-5604440.0
16	15	15	53	225	253.0	530159.0	22955.0	-5604266.0
16	15	15	53	225	254.0	713419.0	20918.0	-5605549.0
16	15	15	53	225	255.0	667714.0	18303.0	-5605207.0
16	15	15	53	226	0.0	461451.0	15252.0	-5604339.0
16	15	15	53	228	1.0	284299.0	12458.0	-5604537.0
16	15	15	53	229	2.0	201440.0	8369.0	-5605920.0
16	15	15	53	230	3.0	162923.0	5713.0	-5605333.0
16	15	15	53	336	4.0	118885.0	5231.0	-5604535.0
16	15	15	53	337	5.0	57054.0	3481.0	-5604703.0
16	15	15	53	337	6.0	2443.0	1707.0	-5605682.0
16	15	15	53	337	7.0	-33671.0	-521.0	-5604993.0
16	15	15	53	338	8.0	-84534.0	-2704.0	-5604154.0
16	15	15	53	338	9.0	-144647.0	-5659.0	-5604071.0
16	15	15	53	338	10.0	-164492.0	-7447.0	-5605041.0
16	15	15	53	338	11.0	-154735.0	-8401.0	-5604485.0
16	15	15	53	339	12.0	-146327.0	-10169.0	-5604576.0
16	15	15	53	339	13.0	-148699.0	-11969.0	-5605729.0
16	15	15	53	339	14.0	-176921.0	-13346.0	-5605121.0
16	15	15	53	339	15.0	-213574.0	-14684.0	-5604291.0
16	15	15	53	340	16.0	-246998.0	-16597.0	-5604676.0
16	15	15	53	340	17.0	-253545.0	-19786.0	-5605671.0
16	15	15	53	340	18.0	-231164.0	-21635.0	-5604999.0
16	15	15	53	340	19.0	-202141.0	-23329.0	-5604097.0
16	15	15	53	341	20.0	-187740.0	-24799.0	-5604373.0
16	15	15	53	341	21.0	-182700.0	-25506.0	-5605397.0
16	15	15	53	341	22.0	-183077.0	-25268.0	-5604799.0
16	15	15	53	342	23.0	-203051.0	-25615.0	-5603891.0
16	15	15	53	342	24.0	-218437.0	-27331.0	-5604313.0
16	15	15	53	342	25.0	-220900.0	-28089.0	-5605251.0
16	15	15	53	342	26.0	-200827.0	-28271.0	-5604586.0
16	15	15	53	343	27.0	-157640.0	-29302.0	-5603870.0
16	15	15	53	343	28.0	-114719.0	-30325.0	-5604966.0
16	15	15	53	343	29.0	-84252.0	-31152.0	-5605114.0
16	15	15	53	343	30.0	-77768.0	-32001.0	-5604341.0
16	15	15	53	344	31.0	-70996.0	-33212.0	-5603819.0
16	15	15	53	344	32.0	-59146.0	-35979.0	-5605091.0
16	15	15	53	344	33.0	-44622.0	-37289.0	-5604848.0
16	15	15	53	344	34.0	-31006.0	-37666.0	-5604075.0
16	15	15	53	345	35.0	-10229.0	-36660.0	-5603342.0
16	15	15	53	345	36.0	-529.0	-37504.0	-5604099.0
16	15	15	53	345	37.0	855.0	-37766.0	-5603941.0
16	15	15	53	346	38.0	-13721.0	-38299.0	-5603436.0
16	15	15	53	346	39.0	-15457.0	-40729.0	-5604736.0
16	15	15	53	346	40.0	33074.0	-42321.0	-5605009.0
16	15	15	53	347	41.0	76767.0	-41784.0	-5604097.0
16	15	15	53	347	42.0	80458.0	-41597.0	-5603691.0
16	15	15	53	347	43.0	77426.0	-41942.0	-5604842.0
16	15	15	53	348	44.0	90769.0	-42243.0	-5604735.0
16	15	15	53	348	45.0	135228.0	-42813.0	-5603853.0
16	15	15	53	348	46.0	181486.0	-43690.0	-5603677.0
16	15	15	53	348	47.0	174601.0	-46089.0	-5604927.0
16	15	15	53	349	48.0	137745.0	-47257.0	-5604600.0
16	15	15	53	349	49.0	124599.0	-47032.0	-5603674.0
16	15	15	53	349	50.0	140720.0	-45727.0	-5603646.0
16	15	15	53	350	51.0	196515.0	-45554.0	-5604648.0
16	15	15	53	350	52.0	233975.0	-46016.0	-5604095.0
16	15	15	53	350	53.0	226103.0	-46247.0	-5603213.0
16	15	15	53	350	54.0	202308.0	-47938.0	-5603159.0
16	15	15	53	351	55.0	200766.0	-49419.0	-5604302.0
16	15	15	53	351	56.0	223176.0	-48537.0	-5603767.0
16	15	15	53	351	57.0	241719.0	-47804.0	-5602961.0
16	15	15	53	352	58.0	224781.0	-48040.0	-5603357.0
16	15	15	53	352	59.0	200196.0	-48601.0	-5603651.0
16	15	15	53	352	60.0	181588.0	-48650.0	-5602941.0
16	15	15	53	352	61.0	169708.0	-49235.0	-5603381.0
16	15	15	53	353	62.0	159387.0	-50866.0	-5604264.0
16	15	15	53	468	63.0	151443.0	-51227.0	-5603446.0
16	15	15	53	469	64.0	128664.0	-50351.0	-5602726.0
16	15	15	53	469	65.0	98911.0	-48637.0	-5603672.0
