16	14	53	54	414	133.0	-56062.0	-20471.0	-5674668.0
16	14	53	54	417	134.0	-32909.0	-20229.0	-5673883.0
16	14	53	54	447	135.0	-21244.0	-19416.0	-5674751.0
16	14	53	54	448	136.0	-14547.0	-17932.0	-5675383.0
16	14	53	54	449	137.0	-15623.0	-17289.0	-5674714.0
16	14	53	54	450	138.0	-3181.0	-16651.0	-5673941.0
16	14	53	54	450	139.0	3140.0	-15626.0	-5674681.0
16	14	53	54	451	140.0	851.0	-14203.0	-5675434.0
16	14	53	54	451	141.0	1846.0	-13505.0	-5674774.0
16	14	53	54	452	142.0	514.0	-13919.0	-5674078.0
16	14	53	54	452	143.0	5594.0	-13821.0	-5674801.0
16	14	53	54	453	144.0	-699.0	-12596.0	-5674845.0
16	14	53	54	454	145.0	-2618.0	-11567.0	-5674152.0
16	14	53	54	454	146.0	-14862.0	-10951.0	-5673993.0
16	14	53	54	455	147.0	-21004.0	-9549.0	-5675306.0
16	14	53	54	455	148.0	-29526.0	-8424.0	-5674804.0
16	14	53	54	456	149.0	-28269.0	-8019.0	-5674057.0
16	14	53	54	456	150.0	-34387.0	-8542.0	-5673636.0
16	14	53	54	457	151.0	-37484.0	-7280.0	-5674952.0
16	14	53	54	457	152.0	-43987.0	-6211.0	-5674796.0
16	14	53	54	458	153.0	-61308.0	-6199.0	-5674062.0
16	14	53	54	459	154.0	-79871.0	-6286.0	-5674287.0
16	14	53	54	459	155.0	-102749.0	-5036.0	-5675372.0
16	14	53	54	486	156.0	-123930.0	-4069.0	-5674752.0
16	14	53	54	508	157.0	-134427.0	-4268.0	-5674022.0
16	14	53	54	508	158.0	-139143.0	-3102.0	-5674346.0
16	14	53	54	508	159.0	-134631.0	-2392.0	-5675541.0
16	14	53	54	509	160.0	-133105.0	-1921.0	-5674930.0
16	14	53	54	509	161.0	-126547.0	-2110.0	-5674190.0
16	14	53	54	509	162.0	-115046.0	-1943.0	-5674659.0
16	14	53	54	529	163.0	-85132.0	-1738.0	-5675698.0
16	14	53	54	530	164.0	-54454.0	-1752.0	-5675081.0
16	14	53	54	530	165.0	-7720.0	-1615.0	-5674301.0
16	14	53	54	530	166.0	25884.0	-1325.0	-5674298.0
16	14	53	54	550	167.0	37418.0	-855.0	-5675337.0
16	14	53	54	569	168.0	22307.0	-207.0	-5674876.0
16	14	53	54	570	169.0	11533.0	-578.0	-5674015.0
16	14	53	54	570	170.0	16831.0	-421.0	-5674211.0
16	14	53	54	570	171.0	39936.0	-305.0	-5675302.0
16	14	53	54	570	186.0	111562.0	-1892.0	-5674146.0
16	14	53	54	571	187.0	39484.0	-2761.0	-5675289.0
16	14	53	54	571	188.0	-35169.0	-3372.0	-5674752.0
16	14	53	54	571	189.0	-96708.0	-3916.0	-5673919.0
16	14	53	54	571	190.0	-136942.0	-3528.0	-5674381.0
16	14	53	54	572	191.0	-155228.0	-2722.0	-5675424.0
16	14	53	54	572	192.0	-163631.0	-2842.0	-5674822.0
16	14	53	54	572	193.0	-172469.0	-3191.0	-5674100.0
16	14	53	54	573	194.0	-173139.0	-3184.0	-5674744.0
16	14	53	54	573	195.0	-145954.0	-3239.0	-5674856.0
16	14	53	54	573	208.0	69598.0	-5842.0	-5674525.0
16	14	53	54	573	209.0	90578.0	-6474.0	-5674177.0
16	14	53	54	574	210.0	107748.0	-7241.0	-5675658.0
16	14	53	54	574	211.0	122047.0	-7190.0	-5675586.0
16	14	53	54	574	212.0	136821.0	-7263.0	-5674771.0
16	14	53	54	574	213.0	154488.0	-7353.0	-5674503.0
16	14	53	54	574	214.0	167324.0	-7136.0	-5675796.0
16	14	53	54	595	215.0	164401.0	-6933.0	-5675625.0
16	14	53	54	596	216.0	155571.0	-6769.0	-5674797.0
16	14	53	54	597	217.0	139962.0	-5619.0	-5674265.0
16	14	53	54	598	218.0	125729.0	-5354.0	-5675307.0
16	14	53	54	598	219.0	96381.0	-5137.0	-5675636.0
16	14	53	54	599	220.0	54416.0	-5000.0	-5674795.0
16	14	53	54	600	221.0	-7284.0	-4732.0	-5674618.0
16	14	53	54	601	222.0	-66352.0	-5194.0	-5675810.0
16	14	53	54	602	223.0	-114569.0	-5649.0	-5675519.0
16	14	53	54	613	224.0	-147976.0	-5566.0	-5674656.0
16	14	53	54	613	225.0	-172609.0	-4894.0	-5675024.0
16	14	53	54	613	226.0	-180373.0	-4424.0	-5676151.0
16	14	53	54	613	227.0	-178532.0	-3959.0	-5675621.0
16	14	53	54	614	228.0	-154416.0	-4067.0	-5674759.0
16	14	53	54	614	229.0	-122597.0	-4187.0	-5674209.0
16	14	53	54	614	231.0	-79867.0	-4089.0	-5675485.0
16	14	53	54	614	232.0	-72691.0	-5027.0	-5674664.0
16	14	53	54	615	233.0	-61597.0	-5194.0	-5674724.0
16	14	53	54	615	234.0	-60663.0	-5067.0	-5675986.0
16	14	53	54	615	235.0	-42452.0	-5036.0	-5675566.0
16	14	53	54	615	236.0	-35776.0	-4289.0	-5674722.0
16	14	53	54	639	237.0	-23190.0	-4022.0	-5674592.0
16	14	53	54	653	238.0	-13385.0	-3792.0	-5675659.0
16	14	53	54	654	239.0	-4674.0	-2340.0	-5675249.0
16	14	53	54	654	240.0	-5861.0	-2012.0	-5674436.0
16	14	53	54	654	241.0	-12338.0	-1673.0	-5674777.0
16	14	53	54	655	242.0	-13464.0	-2167.0	-5675972.0
16	14	53	54	655	243.0	7803.0	-2129.0	-5675342.0
16	14	53	54	655	244.0	56373.0	-2295.0	-5674576.0
16	14	53	54	655	245.0	105968.0	-1581.0	-5674531.0
16	14	53	54	656	246.0	120674.0	-1463.0	-5675969.0
16	14	53	54	656	247.0	105492.0	-1071.0	-5675584.0
16	14	53	54	656	248.0	67963.0	-1047.0	-5674816.0
16	14	53	54	657	249.0	23171.0	-707.0	-5674188.0
16	14	53	54	657	250.0	-33755.0	-409.0	-5675159.0
16	14	53	54	657	251.0	-101964.0	-239.0	-5675181.0
16	14	53	54	657	253.0	-201984.0	-735.0	-5675092.0
16	14	53	54	658	254.0	-206606.0	-1434.0	-5675899.0
16	14	53	54	658	255.0	-177339.0	-1705.0	-5675151.0
16	14	53	54	658	0.0	-137637.0	-1544.0	-5674439.0
16	14	53	54	659	1.0	-108829.0	-987.0	-5674189.0
16	14	53	54	659	2.0	-87178.0	-554.0	-5675569.0
16	14	53	54	659	3.0	-67627.0	-222.0	-5675181.0
16	14	53	54	684	4.0	-31309.0	-31.0	-5674457.0
16	14	53	54	685	5.0	43199.0	899.0	-5674853.0
16	14	53	54	696	6.0	128051.0	2096.0	-5676373.0
16	14	53	54	697	7.0	237278.0	2393.0	-5675768.0
16	14	53	54	697	8.0	364830.0	2389.0	-5675088.0
16	14	53	54	697	9.0	501991.0	2812.0	-5675266.0
16	14	53	54	697	10.0	646829.0	3272.0	-5676306.0
16	14	53	54	698	11.0	794536.0	3026.0	-5675677.0
16	14	53	54	698	12.0	840322.0	3223.0	-5674940.0
16	14	53	54	698	13.0	585302.0	3932.0	-5674720.0
16	14	53	54	698	14.0	123926.0	4285.0	-5675886.0
16	14	53	54	699	15.0	-290205.0	4175.0	-5675352.0
16	14	53	54	699	16.0	-666506.0	4387.0	-5674606.0
16	14	53	54	699	17.0	-1005314.0	4233.0	-5675156.0
16	14	53	54	699	18.0	-1115870.0	4197.0	-5675899.0
16	14	53	54	700	20.0	-146883.0	4699.0	-5674487.0
16	14	53	54	700	21.0	599689.0	4224.0	-5674520.0
16	14	53	54	700	22.0	1122471.0	4113.0	-5675946.0
16	14	53	54	701	23.0	1302717.0	4651.0	-5675607.0
16	14	53	54	717	24.0	1245256.0	5326.0	-5674804.0
16	14	53	54	718	25.0	1105650.0	5111.0	-5674822.0
16	14	53	54	738	26.0	968086.0	4954.0	-5676080.0
16	14	53	54	739	27.0	851019.0	5436.0	-5675633.0
16	14	53	54	739	28.0	677555.0	6742.0	-5674822.0
16	14	53	54	739	29.0	364033.0	6972.0	-5675162.0
16	14	53	54	739	30.0	29589.0	7379.0	-5675991.0
16	14	53	54	740	31.0	-342651.0	7537.0	-5675315.0
16	14	53	54	740	32.0	-930616.0	8348.0	-5674413.0
16	14	53	54	740	33.0	-1458496.0	8562.0	-5674444.0
16	14	53	54	740	34.0	-1681906.0	8211.0	-5675678.0
16	14	53	54	741	35.0	-1641098.0	8231.0	-5675232.0
16	14	53	54	741	36.0	-1359397.0	8492.0	-5674407.0
16	14	53	54	741	37.0	-847767.0	8398.0	-5674959.0
16	14	53	54	741	38.0	-294116.0	8925.0	-5676014.0
16	14	53	54	742	39.0	189612.0	9457.0	-5675496.0
16	14	53	54	742	40.0	534839.0	9936.0	-5674695.0
16	14	53	54	742	42.0	483199.0	10689.0	-5675889.0
16	14	53	54	742	43.0	242193.0	9786.0	-5675636.0
16	14	53	54	742	44.0	13780.0	9147.0	-5674827.0
16	14	53	54	760	45.0	-165376.0	9154.0	-5675357.0
16	14	53	54	760	46.0	-275805.0	9042.0	-5676407.0
16	14	53	54	761	47.0	-312559.0	8956.0	-5675839.0
16	14	53	54	781	48.0	-283392.0	8898.0	-5675009.0
16	14	53	54	781	49.0	-210689.0	9296.0	-5675588.0
16	14	53	54	781	50.0	-130897.0	10788.0	-5676719.0
16	14	53	54	782	51.0	-50697.0	11271.0	-5676113.0
16	14	53	54	782	52.0	35112.0	11178.0	-5675299.0
16	14	53	54	782	53.0	108595.0	10979.0	-5674968.0
16	14	53	54	800	54.0	154843.0	10863.0	-5676178.0
16	14	53	54	800	55.0	165191.0	10651.0	-5676076.0
16	14	53	54	801	56.0	161536.0	10335.0	-5675272.0
16	14	53	54	801	57.0	163736.0	10965.0	-5675247.0
16	14	53	54	801	58.0	168218.0	11521.0	-5676369.0
16	14	53	54	820	59.0	168546.0	11717.0	-5675881.0
16	14	53	54	820	60.0	152813.0	11053.0	-5675069.0
16	14	53	54	820	61.0	110151.0	11304.0	-5675054.0
16	14	53	54	821	62.0	53551.0	11039.0	-5676210.0
16	14	53	54	822	64.0	-52696.0	11174.0	-5674904.0
16	14	53	54	822	65.0	-101673.0	10766.0	-5675232.0
16	14	53	54	839	66.0	-122336.0	9694.0	-5676523.0
16	14	53	54	839	67.0	-103519.0	9538.0	-5675852.0
16	14	53	54	839	68.0	-69197.0	9479.0	-5675116.0
16	14	53	54	840	69.0	-47321.0	10333.0	-5675387.0
16	14	53	54	840	70.0	-53841.0	11825.0	-5676646.0
16	14	53	54	840	71.0	-71393.0	11832.0	-5676004.0
16	14	53	54	840	72.0	-91861.0	11493.0	-5675284.0
16	14	53	54	841	73.0	-110739.0	11494.0	-5674828.0
16	14	53	54	841	74.0	-115292.0	11269.0	-5676221.0
16	14	53	54	841	87.0	36684.0	11074.0	-5676209.0
16	14	53	54	841	88.0	16250.0	10394.0	-5675436.0
16	14	53	54	842	89.0	12549.0	10254.0	-5675439.0
16	14	53	54	842	90.0	18186.0	10895.0	-5676725.0
16	14	53	54	842	91.0	18869.0	11129.0	-5676261.0
16	14	53	54	842	92.0	19233.0	11193.0	-5675497.0
16	14	53	54	864	93.0	15402.0	11189.0	-5675658.0
16	14	53	54	865	94.0	24729.0	11239.0	-5676967.0
16	14	53	54	865	95.0	48185.0	12450.0	-5676436.0
16	14	53	54	866	96.0	67200.0	12689.0	-5675660.0
16	14	53	54	880	97.0	79751.0	12802.0	-5676148.0
16	14	53	54	881	98.0	78508.0	12953.0	-5676974.0
16	14	53	54	881	99.0	77552.0	13099.0	-5676281.0
16	14	53	54	881	100.0	78798.0	13441.0	-5675481.0
16	14	53	54	881	101.0	90466.0	13798.0	-5675282.0
16	14	53	54	882	102.0	107155.0	14259.0	-5676522.0
16	14	53	54	882	103.0	127563.0	14846.0	-5676260.0
16	14	53	54	882	104.0	151343.0	15783.0	-5675449.0
16	14	53	54	882	105.0	172940.0	16454.0	-5675537.0
16	14	53	54	883	106.0	193557.0	17179.0	-5676788.0
16	14	53	54	883	107.0	196908.0	18139.0	-5676385.0
16	14	53	54	883	109.0	184378.0	21253.0	-5675833.0
16	14	53	54	883	110.0	171843.0	23009.0	-5677066.0
16	14	53	54	884	111.0	160267.0	23736.0	-5676584.0
16	14	53	54	884	112.0	159013.0	25806.0	-5675747.0
16	14	53	54	884	113.0	170277.0	27787.0	-5675499.0
16	14	53	54	885	114.0	171253.0	29874.0	-5676716.0
16	14	53	54	885	115.0	153583.0	32036.0	-5676502.0
16	14	53	54	912	116.0	135572.0	33990.0	-5675624.0
16	14	53	54	931	117.0	133912.0	35727.0	-5675584.0
16	14	53	54	931	118.0	131289.0	38276.0	-5676827.0
16	14	53	54	932	119.0	128143.0	40599.0	-5676516.0
16	14	53	54	932	120.0	127201.0	42374.0	-5675693.0
16	14	53	54	933	121.0	130028.0	43735.0	-5675468.0
16	14	53	54	933	122.0	124738.0	45454.0	-5676761.0
16	14	53	54	933	123.0	102223.0	46595.0	-5676592.0
16	14	53	54	934	124.0	62176.0	48066.0	-5675721.0
16	14	53	54	934	125.0	20668.0	49149.0	-5675648.0
16	14	53	54	935	126.0	-1139.0	49893.0	-5676836.0
16	14	53	54	935	127.0	-6997.0	51266.0	-5676482.0
16	14	53	54	935	128.0	1913.0	51876.0	-5675648.0
16	14	53	54	936	129.0	25609.0	52334.0	-5675949.0
16	14	53	54	936	130.0	48792.0	53514.0	-5677298.0
16	14	53	54	936	132.0	110223.0	54339.0	-5675994.0
16	14	53	54	937	133.0	124128.0	54519.0	-5675449.0
16	14	53	54	937	134.0	115190.0	54168.0	-5676562.0
16	14	53	54	938	135.0	85141.0	54244.0	-5676658.0
16	14	53	54	938	136.0	45199.0	54304.0	-5675912.0
16	14	53	54	938	137.0	-720.0	54279.0	-5676287.0
16	14	53	54	959	138.0	-42647.0	54223.0	-5677315.0
16	14	53	54	959	139.0	-87394.0	54360.0	-5676671.0
16	14	53	54	960	140.0	-129702.0	54829.0	-5675894.0
16	14	53	54	960	141.0	-167828.0	55034.0	-5676111.0
16	14	53	54	960	142.0	-196424.0	54334.0	-5677166.0
16	14	53	54	961	143.0	-214209.0	53818.0	-5676529.0
16	14	53	54	981	144.0	-222613.0	53339.0	-5675815.0
16	14	53	54	982	145.0	-233090.0	52420.0	-5675919.0
16	14	53	54	982	146.0	-256310.0	52165.0	-5676802.0
16	14	53	54	982	147.0	-297759.0	51713.0	-5676151.0
16	14	53	54	983	148.0	-346551.0	50478.0	-5675785.0
16	14	53	54	983	149.0	-391445.0	49655.0	-5677022.0
16	14	53	54	983	150.0	-465459.0	48901.0	-5676934.0
16	14	53	54	983	151.0	-641729.0	48119.0	-5676128.0
16	14	53	54	984	152.0	-937415.0	46988.0	-5675634.0
16	14	53	54	984	154.0	-1502842.0	43793.0	-5676903.0
16	14	53	54	984	155.0	-1331150.0	42277.0	-5676093.0
16	14	53	54	984	156.0	-562886.0	39834.0	-5676255.0
16	14	53	54	985	157.0	474629.0	38208.0	-5677542.0
16	14	53	54	985	158.0	1193211.0	36771.0	-5677201.0
16	14	53	54	985	159.0	1365287.0	35350.0	-5676386.0
16	14	53	54	986	160.0	1060505.0	33307.0	-5675990.0
16	14	53	55	1	161.0	457811.0	32047.0	-5677385.0
16	14	53	55	2	162.0	-81432.0	31121.0	-5677518.0
16	14	53	55	2	163.0	-317247.0	29779.0	-5676639.0
16	14	53	55	2	164.0	-320579.0	28264.0	-5676060.0
16	14	53	55	3	165.0	-227106.0	26664.0	-5677046.0
16	14	53	55	3	166.0	-79607.0	24788.0	-5677539.0
16	14	53	55	21	167.0	84974.0	22791.0	-5676740.0
16	14	53	55	22	168.0	220039.0	21056.0	-5676235.0
16	14	53	55	22	169.0	301674.0	19480.0	-5677239.0
16	14	53	55	22	170.0	343591.0	18183.0	-5677356.0
16	14	53	55	22	171.0	361658.0	16533.0	-5676589.0
16	14	53	55	23	172.0	352357.0	14554.0	-5676191.0
16	14	53	55	23	173.0	300966.0	12922.0	-5677340.0
16	14	53	55	23	174.0	210312.0	11306.0	-5677352.0
16	14	53	55	24	175.0	105763.0	9396.0	-5676532.0
16	14	53	55	24	177.0	-37284.0	6059.0	-5677685.0
16	14	53	55	24	178.0	-54798.0	3738.0	-5677316.0
16	14	53	55	24	179.0	-35706.0	2151.0	-5676497.0
16	14	53	55	45	180.0	12896.0	762.0	-5675997.0
16	14	53	55	64	181.0	60678.0	-489.0	-5677453.0
16	14	53	55	64	182.0	57639.0	-1784.0	-5677716.0
16	14	53	55	65	183.0	-7972.0	-3385.0	-5676917.0
16	14	53	55	65	184.0	-110396.0	-3939.0	-5676289.0
16	14	53	55	65	185.0	-213396.0	-4922.0	-5677418.0
16	14	53	55	66	186.0	-289661.0	-6410.0	-5677672.0
16	14	53	55	66	187.0	-318637.0	-7304.0	-5676944.0
16	14	53	55	66	188.0	-311215.0	-8019.0	-5676676.0
16	14	53	55	66	189.0	-274428.0	-9319.0	-5677935.0
16	14	53	55	67	190.0	-225782.0	-10259.0	-5677588.0
16	14	53	55	67	191.0	-157481.0	-11357.0	-5676853.0
16	14	53	55	67	192.0	-75757.0	-12194.0	-5676264.0
16	14	53	55	67	193.0	9828.0	-12769.0	-5677559.0
16	14	53	55	91	194.0	76214.0	-14182.0	-5677691.0
16	14	53	55	91	199.0	429644.0	-18928.0	-5676467.0
16	14	53	55	91	200.0	512974.0	-19920.0	-5676702.0
16	14	53	55	106	201.0	566071.0	-22027.0	-5677885.0
16	14	53	55	106	202.0	568805.0	-23029.0	-5677273.0
16	14	53	55	107	203.0	531509.0	-24182.0	-5676644.0
16	14	53	55	107	204.0	461271.0	-25460.0	-5677459.0
16	14	53	55	107	205.0	388383.0	-25851.0	-5678018.0
16	14	53	55	108	206.0	311010.0	-25852.0	-5677177.0
16	14	53	55	108	207.0	229412.0	-26641.0	-5676584.0
16	14	53	55	108	208.0	137609.0	-27168.0	-5677471.0
16	14	53	55	109	209.0	64372.0	-27581.0	-5677884.0
16	14	53	55	109	210.0	13896.0	-27929.0	-5677048.0
16	14	53	55	109	211.0	6891.0	-28777.0	-5676324.0
16	14	53	55	109	212.0	21069.0	-28597.0	-5676645.0
16	14	53	55	110	213.0	48433.0	-29140.0	-5677719.0
16	14	53	55	110	222.0	-42835.0	-30759.0	-5676799.0
16	14	53	55	110	223.0	-55483.0	-31883.0	-5676149.0
16	14	53	55	111	224.0	-80204.0	-32500.0	-5676997.0
16	14	53	55	111	225.0	-110564.0	-32028.0	-5677491.0
16	14	53	55	111	226.0	-133222.0	-31867.0	-5676706.0
16	14	53	55	111	227.0	-146256.0	-31887.0	-5676133.0
16	14	53	55	135	228.0	-144742.0	-31346.0	-5677419.0
16	14	53	55	148	229.0	-134501.0	-30531.0	-5677581.0
16	14	53	55	149	230.0	-109602.0	-28930.0	-5676841.0
16	14	53	55	149	231.0	-84762.0	-27826.0	-5676076.0
16	14	53	55	149	232.0	-60162.0	-27545.0	-5676741.0
16	14	53	55	150	233.0	-60583.0	-27225.0	-5677679.0
16	14	53	55	150	234.0	-65507.0	-27321.0	-5677079.0
16	14	53	55	150	235.0	-68823.0	-27130.0	-5676479.0
16	14	53	55	151	236.0	-63046.0	-26959.0	-5677474.0
16	14	53	55	151	237.0	-53276.0	-26080.0	-5677472.0
16	14	53	55	151	238.0	-55857.0	-25115.0	-5676747.0
16	14	53	55	151	239.0	-51463.0	-24054.0	-5676052.0
16	14	53	55	152	240.0	-57921.0	-23114.0	-5677044.0
16	14	53	55	152	241.0	-70073.0	-22600.0	-5677342.0
16	14	53	55	152	242.0	-88064.0	-21906.0	-5676636.0
16	14	53	55	153	244.0	-105471.0	-20062.0	-5676612.0
16	14	53	55	153	245.0	-108993.0	-20385.0	-5677166.0
16	14	53	55	153	246.0	-106731.0	-20587.0	-5676489.0
16	14	53	55	153	247.0	-113799.0	-19610.0	-5675919.0
16	14	53	55	154	248.0	-115224.0	-18664.0	-5676944.0
16	14	53	55	169	249.0	-111276.0	-17650.0	-5676852.0
16	14	53	55	169	250.0	-111197.0	-16472.0	-5676119.0
16	14	53	55	189	251.0	-104902.0	-15296.0	-5675956.0
16	14	53	55	190	252.0	-95792.0	-14162.0	-5676901.0
16	14	53	55	190	253.0	-67939.0	-12811.0	-5676380.0
16	14	53	55	190	254.0	-41861.0	-12164.0	-5676214.0
16	14	53	55	191	255.0	-19098.0	-11801.0	-5677531.0
16	14	53	55	191	0.0	11746.0	-11089.0	-5677269.0
16	14	53	55	191	1.0	50443.0	-10076.0	-5676468.0
16	14	53	55	192	2.0	106807.0	-10104.0	-5676262.0
16	14	53	55	192	3.0	161821.0	-9002.0	-5677394.0
16	14	53	55	192	4.0	202099.0	-8145.0	-5677112.0
16	14	53	55	192	5.0	205241.0	-6903.0	-5676268.0
16	14	53	55	193	6.0	176568.0	-6569.0	-5675749.0
16	14	53	55	193	7.0	137726.0	-5924.0	-5676917.0
16	14	53	55	193	8.0	75235.0	-5176.0	-5677323.0
16	14	53	55	193	9.0	-5791.0	-4994.0	-5676460.0
16	14	53	55	193	11.0	-152944.0	-5040.0	-5677156.0
16	14	53	55	209	12.0	-192612.0	-5857.0	-5677059.0
16	14	53	55	210	13.0	-196929.0	-5666.0	-5676193.0
16	14	53	55	210	14.0	-172056.0	-4796.0	-5675842.0
16	14	53	55	210	15.0	-115262.0	-4432.0	-5676964.0
16	14	53	55	210	16.0	-48354.0	-4011.0	-5676877.0
16	14	53	55	231	17.0	16953.0	-3399.0	-5676011.0
16	14	53	55	232	18.0	67338.0	-3002.0	-5675898.0
16	14	53	55	232	19.0	93155.0	-1787.0	-5677268.0
16	14	53	55	232	20.0	85643.0	-1156.0	-5677015.0
16	14	53	55	233	21.0	67532.0	-1248.0	-5676172.0
16	14	53	55	233	22.0	31104.0	-1102.0	-5675747.0
16	14	53	55	233	23.0	-28709.0	-1392.0	-5676812.0
16	14	53	55	234	24.0	-95517.0	-949.0	-5676651.0
16	14	53	55	234	25.0	-158632.0	-517.0	-5675854.0
16	14	53	55	234	26.0	-198982.0	-667.0	-5675460.0
16	14	53	55	251	27.0	-231612.0	-1071.0	-5676703.0
16	14	53	55	251	28.0	-267223.0	-741.0	-5676608.0
16	14	53	55	252	29.0	-294498.0	-723.0	-5675813.0
16	14	53	55	252	30.0	-320487.0	-846.0	-5675900.0
16	14	53	55	252	31.0	-317912.0	-815.0	-5677317.0
16	14	53	55	253	33.0	-221886.0	-572.0	-5676110.0
16	14	53	55	253	34.0	-136139.0	-1581.0	-5675416.0
16	14	53	55	253	35.0	-45142.0	-2119.0	-5676289.0
16	14	53	55	254	36.0	58928.0	-2397.0	-5676778.0
16	14	53	55	254	37.0	153288.0	-2752.0	-5676117.0
16	14	53	55	254	38.0	236748.0	-2847.0	-5675448.0
16	14	53	55	255	39.0	307629.0	-2899.0	-5676539.0
16	14	53	55	270	40.0	372964.0	-2750.0	-5676904.0
16	14	53	55	271	41.0	419543.0	-2635.0	-5676214.0
16	14	53	55	271	42.0	404339.0	-2174.0	-5675772.0
16	14	53	55	291	43.0	353037.0	-2127.0	-5677069.0
16	14	53	55	291	44.0	265649.0	-2159.0	-5676923.0
16	14	53	55	291	45.0	179643.0	-2077.0	-5676175.0
16	14	53	55	292	46.0	105941.0	-1776.0	-5675572.0
16	14	53	55	292	47.0	51049.0	-2332.0	-5676893.0
16	14	53	55	292	48.0	19456.0	-2391.0	-5677031.0
16	14	53	55	293	49.0	-4479.0	-2511.0	-5676312.0
16	14	53	55	293	50.0	1495.0	-2935.0	-5675869.0
16	14	53	55	293	51.0	1096.0	-3333.0	-5676615.0
16	14	53	55	294	52.0	5712.0	-3631.0	-5676109.0
16	14	53	55	294	53.0	6371.0	-3678.0	-5675416.0
16	14	53	55	294	54.0	22896.0	-3676.0	-5675659.0
16	14	53	55	294	56.0	85904.0	-3531.0	-5676151.0
16	14	53	55	295	57.0	119978.0	-4951.0	-5675469.0
16	14	53	55	295	58.0	146911.0	-5365.0	-5676079.0
16	14	53	55	295	59.0	178614.0	-5244.0	-5677187.0
16	14	53	55	296	60.0	200355.0	-5812.0	-5676474.0
16	14	53	55	296	61.0	223843.0	-5489.0	-5676011.0
16	14	53	55	315	62.0	257095.0	-4926.0	-5677025.0
16	14	53	55	315	63.0	306348.0	-4607.0	-5677174.0
16	14	53	55	331	64.0	379758.0	-3047.0	-5676345.0
16	14	53	55	332	65.0	432323.0	-3129.0	-5675706.0
16	14	53	55	332	66.0	449929.0	-3212.0	-5676257.0
16	14	53	55	332	67.0	413821.0	-3736.0	-5677039.0
16	14	53	55	333	68.0	350722.0	-3293.0	-5676271.0
16	14	53	55	333	69.0	257313.0	-3513.0	-5675622.0
16	14	53	55	333	70.0	140083.0	-3826.0	-5676529.0
16	14	53	55	333	71.0	21693.0	-3727.0	-5677144.0
16	14	53	55	334	72.0	-98596.0	-3672.0	-5676361.0
16	14	53	55	334	73.0	-196369.0	-3294.0	-5675653.0
16	14	53	55	334	74.0	-271044.0	-2507.0	-5676059.0
16	14	53	55	335	75.0	-312513.0	-2987.0	-5676871.0
16	14	53	55	335	76.0	-331786.0	-3157.0	-5676185.0
16	14	53	55	335	78.0	-340788.0	-2629.0	-5676461.0
16	14	53	55	336	79.0	-349736.0	-3043.0	-5677034.0
16	14	53	55	336	80.0	-347091.0	-4048.0	-5676244.0
16	14	53	55	336	81.0	-342694.0	-3696.0	-5675762.0
16	14	53	55	337	82.0	-317589.0	-3510.0	-5676947.0
16	14	53	55	337	83.0	-280729.0	-3321.0	-5676906.0
16	14	53	55	360	84.0	-243131.0	-3099.0	-5676149.0
16	14	53	55	382	85.0	-195402.0	-2469.0	-5675389.0
16	14	53	55	382	86.0	-157927.0	-761.0	-5676117.0
16	14	53	55	383	87.0	-135837.0	170.0	-5677209.0
16	14	53	55	383	88.0	-136426.0	-53.0	-5676579.0
16	14	53	55	384	89.0	-135015.0	-797.0	-5675786.0
16	14	53	55	384	90.0	-123715.0	-708.0	-5676327.0
16	14	53	55	384	91.0	-109018.0	-841.0	-5677119.0
16	14	53	55	385	92.0	-85746.0	-881.0	-5676510.0
16	14	53	55	385	93.0	-71600.0	-194.0	-5675751.0
16	14	53	55	385	94.0	-48362.0	59.0	-5676364.0
16	14	53	55	385	95.0	-26777.0	-375.0	-5676960.0
16	14	53	55	386	96.0	-15525.0	126.0	-5676316.0
16	14	53	55	386	97.0	-23156.0	-336.0	-5675563.0
16	14	53	55	387	98.0	-45337.0	-200.0	-5676262.0
16	14	53	55	387	100.0	-78501.0	-19.0	-5676018.0
16	14	53	55	387	101.0	-77444.0	31.0	-5675244.0
16	14	53	55	387	102.0	-67211.0	-1437.0	-5675883.0
16	14	53	55	388	103.0	-51128.0	-1367.0	-5676527.0
16	14	53	55	388	104.0	-30707.0	-711.0	-5675875.0
16	14	53	55	389	105.0	-13569.0	-389.0	-5675079.0
16	14	53	55	389	106.0	1128.0	-54.0	-5675457.0
16	14	53	55	409	107.0	13710.0	372.0	-5676301.0
16	14	53	55	410	108.0	35756.0	1004.0	-5675739.0
16	14	53	55	410	109.0	62501.0	1569.0	-5675092.0
16	14	53	55	411	110.0	93524.0	1845.0	-5675910.0
16	14	53	55	411	111.0	131389.0	2372.0	-5675856.0
16	14	53	55	411	112.0	186051.0	2574.0	-5675182.0
16	14	53	55	412	113.0	257078.0	2456.0	-5675430.0
16	14	53	55	434	114.0	314373.0	2485.0	-5676336.0
16	14	53	55	434	115.0	343730.0	2996.0	-5675602.0
16	14	53	55	434	116.0	350615.0	2836.0	-5674858.0
16	14	53	55	435	117.0	338668.0	2888.0	-5674859.0
16	14	53	55	435	118.0	317596.0	3024.0	-5676177.0
16	14	53	55	436	119.0	298032.0	2955.0	-5675665.0
16	14	53	55	436	120.0	275894.0	2899.0	-5674921.0
16	14	53	55	436	121.0	242450.0	3589.0	-5675337.0
16	14	53	55	437	123.0	122766.0	4596.0	-5675826.0
16	14	53	55	437	124.0	61334.0	4108.0	-5675113.0
16	14	53	55	437	125.0	28038.0	3701.0	-5675552.0
16	14	53	55	437	126.0	7122.0	4011.0	-5676382.0
16	14	53	55	438	127.0	-5727.0	4271.0	-5675669.0
16	14	53	55	438	128.0	4341.0	4296.0	-5674940.0
16	14	53	55	456	129.0	32113.0	4269.0	-5675649.0
16	14	53	55	457	130.0	63086.0	4696.0	-5676509.0
16	14	53	55	458	131.0	99851.0	5928.0	-5675777.0
16	14	53	55	459	132.0	141861.0	6614.0	-5675010.0
16	14	53	55	460	133.0	173409.0	6910.0	-5675403.0
16	14	53	55	461	134.0	182700.0	7687.0	-5676586.0
16	14	53	55	462	135.0	164108.0	8232.0	-5676038.0
16	14	53	55	463	136.0	137278.0	8023.0	-5675229.0
16	14	53	55	463	137.0	122184.0	7568.0	-5675389.0
16	14	53	55	464	138.0	116459.0	7470.0	-5676814.0
16	14	53	55	465	139.0	99114.0	7365.0	-5676413.0
16	14	53	55	465	140.0	73242.0	7301.0	-5675627.0
16	14	53	55	465	141.0	50098.0	7174.0	-5676268.0
16	14	53	55	465	142.0	15263.0	7448.0	-5677233.0
16	14	53	55	466	143.0	-13128.0	7998.0	-5676617.0
16	14	53	55	466	145.0	-73106.0	8643.0	-5675890.0
16	14	53	55	466	146.0	-95349.0	8683.0	-5677086.0
16	14	53	55	467	147.0	-92864.0	7825.0	-5676651.0
16	14	53	55	467	148.0	-78719.0	7704.0	-5675783.0
16	14	53	55	467	149.0	-50104.0	7601.0	-5675947.0
16	14	53	55	467	150.0	-10035.0	7279.0	-5677361.0
16	14	53	55	468	151.0	39401.0	7204.0	-5676982.0
16	14	53	55	494	152.0	96023.0	7378.0	-5676170.0
16	14	53	55	494	153.0	139166.0	8239.0	-5675969.0
16	14	53	55	517	154.0	176019.0	9822.0	-5677402.0
16	14	53	55	518	155.0	182884.0	9926.0	-5677302.0
16	14	53	55	518	156.0	150264.0	10194.0	-5676465.0
16	14	53	55	519	157.0	107755.0	10159.0	-5676177.0
16	14	53	55	519	158.0	53735.0	9334.0	-5677332.0
16	14	53	55	520	159.0	-5139.0	9735.0	-5677119.0
16	14	53	55	520	160.0	-68603.0	9388.0	-5676290.0
16	14	53	55	521	161.0	-150394.0	9020.0	-5676571.0
16	14	53	55	521	162.0	-226736.0	9379.0	-5677570.0
16	14	53	55	521	163.0	-298258.0	10011.0	-5676980.0
16	14	53	55	522	164.0	-360528.0	9899.0	-5676194.0
16	14	53	55	522	165.0	-396637.0	10531.0	-5675656.0
16	14	53	55	523	166.0	-424210.0	10775.0	-5676887.0
16	14	53	55	523	168.0	-452686.0	11053.0	-5676259.0
16	14	53	55	524	169.0	-466501.0	10063.0	-5676172.0
16	14	53	55	524	170.0	-444877.0	9158.0	-5677604.0
16	14	53	55	525	171.0	-395334.0	9378.0	-5677251.0
16	14	53	55	525	172.0	-292862.0	9713.0	-5676493.0
16	14	53	55	525	173.0	-131658.0	10059.0	-5676226.0
16	14	53	55	549	174.0	64178.0	10043.0	-5677631.0
16	14	53	55	549	175.0	281854.0	10434.0	-5677421.0
16	14	53	55	549	176.0	494921.0	11487.0	-5676674.0
16	14	53	55	550	177.0	721189.0	11644.0	-5676197.0
16	14	53	55	550	178.0	931897.0	11510.0	-5677504.0
16	14	53	55	550	179.0	832996.0	11322.0	-5677442.0
16	14	53	55	551	180.0	405281.0	11384.0	-5676676.0
16	14	53	55	551	181.0	-168362.0	11263.0	-5676123.0
16	14	53	55	551	182.0	-828206.0	11645.0	-5677574.0
16	14	53	55	552	183.0	-1407641.0	11748.0	-5677567.0
16	14	53	55	552	184.0	-1647135.0	12229.0	-5676823.0
16	14	53	55	552	185.0	-1334996.0	12653.0	-5676089.0
16	14	53	55	553	186.0	-514417.0	12832.0	-5677011.0
16	14	53	55	553	187.0	426204.0	12583.0	-5677715.0
16	14	53	55	553	188.0	1084850.0	12324.0	-5677118.0
16	14	53	55	573	190.0	1306250.0	11780.0	-5677428.0
16	14	53	55	573	191.0	1060234.0	11878.0	-5677274.0
16	14	53	55	573	192.0	838038.0	11011.0	-5676604.0
16	14	53	55	574	193.0	729190.0	10958.0	-5677117.0
16	14	53	55	574	194.0	551024.0	11073.0	-5678120.0
16	14	53	55	574	195.0	223671.0	11350.0	-5677339.0
16	14	53	55	574	196.0	-193552.0	11759.0	-5676591.0
16	14	53	55	614	197.0	-627674.0	11739.0	-5677005.0
16	14	53	55	659	198.0	-912052.0	11788.0	-5678158.0
16	14	53	55	706	199.0	-1081515.0	12167.0	-5677454.0
16	14	53	55	706	200.0	-1012136.0	12257.0	-5676741.0
16	14	53	55	707	201.0	-678374.0	11758.0	-5677259.0
16	14	53	55	707	202.0	-302099.0	11677.0	-5678241.0
16	14	53	55	707	203.0	-50700.0	12079.0	-5677565.0
16	14	53	55	707	204.0	186189.0	12064.0	-5676904.0
16	14	53	55	708	205.0	445934.0	11729.0	-5677322.0
16	14	53	55	708	206.0	609594.0	11991.0	-5678421.0
16	14	53	55	708	207.0	632368.0	11650.0	-5677727.0
16	14	53	55	709	208.0	517743.0	11819.0	-5677016.0
16	14	53	55	709	209.0	262078.0	11929.0	-5677772.0
16	14	53	55	709	210.0	-39395.0	11741.0	-5678440.0
16	14	53	55	709	211.0	-287503.0	11647.0	-5677639.0
16	14	53	55	710	213.0	-535314.0	11156.0	-5676877.0
16	14	53	55	710	235.0	-37539.0	10106.0	-5677842.0
16	14	53	55	710	2.0	-124870.0	9779.0	-5679443.0
16	14	53	55	710	3.0	-64287.0	8899.0	-5678849.0
16	14	53	55	711	4.0	-7607.0	8381.0	-5678092.0
16	14	53	55	711	5.0	49135.0	9348.0	-5678156.0
16	14	53	55	711	6.0	116524.0	9798.0	-5678687.0
16	14	53	55	711	7.0	177316.0	9955.0	-5678039.0
16	14	53	55	755	8.0	222954.0	10586.0	-5677277.0
16	14	53	55	755	9.0	256594.0	11129.0	-5677509.0
16	14	53	55	756	10.0	286426.0	13194.0	-5678119.0
16	14	53	55	756	11.0	311189.0	13904.0	-5677549.0
16	14	53	55	756	12.0	337854.0	14218.0	-5678158.0
16	14	53	55	756	13.0	348891.0	14730.0	-5678966.0
16	14	53	55	757	14.0	328875.0	15539.0	-5678224.0
16	14	53	55	757	15.0	283398.0	16080.0	-5677526.0
16	14	53	55	757	16.0	219528.0	16969.0	-5678081.0
16	14	53	55	757	17.0	151578.0	18303.0	-5678759.0
16	14	53	55	757	18.0	80588.0	19768.0	-5678027.0
16	14	53	55	758	19.0	17489.0	21297.0	-5677182.0
16	14	53	55	758	20.0	-41123.0	23354.0	-5677214.0
16	14	53	55	758	21.0	-87722.0	25255.0	-5678412.0
16	14	53	55	759	22.0	-107021.0	28069.0	-5677972.0
16	14	53	55	759	24.0	-169867.0	32401.0	-5677893.0
16	14	53	55	759	25.0	-136804.0	34387.0	-5678359.0
16	14	53	55	759	26.0	51246.0	36058.0	-5677662.0
16	14	53	55	760	27.0	256228.0	38473.0	-5676934.0
16	14	53	55	760	28.0	381399.0	40966.0	-5677912.0
16	14	53	55	760	29.0	405334.0	43139.0	-5678642.0
16	14	53	55	760	30.0	367158.0	44972.0	-5677989.0
16	14	53	55	799	31.0	329939.0	46347.0	-5677268.0
16	14	53	55	799	32.0	322896.0	48327.0	-5678159.0
16	14	53	55	799	33.0	258849.0	49908.0	-5678562.0
16	14	53	55	800	34.0	139515.0	51171.0	-5677859.0
16	14	53	55	800	35.0	71103.0	52625.0	-5677014.0
16	14	53	55	800	36.0	57413.0	53828.0	-5677625.0
16	14	53	55	800	37.0	83731.0	54882.0	-5678247.0
16	14	53	55	801	38.0	109918.0	55866.0	-5677603.0
16	14	53	55	801	39.0	119644.0	57711.0	-5676774.0
16	14	53	55	801	40.0	120553.0	58187.0	-5677119.0
16	14	53	55	801	41.0	115263.0	58593.0	-5678237.0
16	14	53	55	802	42.0	107816.0	58770.0	-5677689.0
16	14	53	55	802	43.0	84365.0	59042.0	-5677056.0
16	14	53	55	802	44.0	62723.0	58851.0	-5677766.0
16	14	53	55	802	45.0	45191.0	58558.0	-5677670.0
16	14	53	55	803	47.0	64171.0	58711.0	-5676872.0
16	14	53	55	803	48.0	88154.0	57336.0	-5678269.0
16	14	53	55	803	49.0	124018.0	56490.0	-5677833.0
16	14	53	55	803	50.0	164450.0	56181.0	-5677117.0
16	14	53	55	804	51.0	195801.0	55454.0	-5677054.0
16	14	53	55	804	52.0	213326.0	54716.0	-5678365.0
16	14	53	55	845	53.0	223610.0	53848.0	-5677842.0
16	14	53	55	845	54.0	212338.0	53351.0	-5677114.0
16	14	53	55	846	55.0	177468.0	53693.0	-5677386.0
16	14	53	55	846	56.0	130463.0	53244.0	-5678589.0
16	14	53	55	846	57.0	79618.0	52229.0	-5677979.0
16	14	53	55	846	58.0	18631.0	50965.0	-5677226.0
16	14	53	55	846	59.0	-39030.0	50265.0	-5677424.0
16	14	53	55	847	60.0	-89601.0	49048.0	-5678778.0
16	14	53	55	847	61.0	-147523.0	47514.0	-5678247.0
16	14	53	55	847	62.0	-217795.0	45609.0	-5677531.0
16	14	53	55	847	63.0	-328322.0	43980.0	-5677932.0
16	14	53	55	848	64.0	-550915.0	42503.0	-5678984.0
16	14	53	55	848	65.0	-889541.0	41435.0	-5678312.0
16	14	53	55	848	66.0	-1263719.0	40535.0	-5677499.0
16	14	53	55	848	67.0	-1457046.0	39454.0	-5677284.0
16	14	53	55	849	69.0	-114354.0	35772.0	-5678564.0
16	14	53	55	849	70.0	929609.0	33780.0	-5677844.0
16	14	53	55	849	71.0	1446330.0	30793.0	-5677695.0
16	14	53	55	849	72.0	1374057.0	29263.0	-5678885.0
16	14	53	55	850	73.0	849028.0	27402.0	-5678538.0
16	14	53	55	850	74.0	115068.0	26063.0	-5677674.0
16	14	53	55	850	75.0	-423197.0	24279.0	-5678362.0
16	14	53	55	892	76.0	-600977.0	22868.0	-5679107.0
16	14	53	55	892	77.0	-571999.0	21528.0	-5678450.0
16	14	53	55	893	78.0	-462086.0	20479.0	-5677616.0
16	14	53	55	893	79.0	-288991.0	18537.0	-5677742.0
16	14	53	55	893	80.0	-94324.0	16689.0	-5679008.0
16	14	53	55	893	81.0	54944.0	15264.0	-5678607.0
16	14	53	55	894	82.0	122730.0	13076.0	-5677802.0
16	14	53	55	894	83.0	131003.0	10913.0	-5678351.0
16	14	53	55	894	84.0	105618.0	8947.0	-5679401.0
16	14	53	55	894	85.0	34911.0	7391.0	-5678824.0
16	14	53	55	895	86.0	-89218.0	6168.0	-5677962.0
16	14	53	55	895	87.0	-226753.0	4543.0	-5677660.0
16	14	53	55	895	88.0	-348711.0	3152.0	-5678950.0
16	14	53	55	896	89.0	-440966.0	1598.0	-5678935.0
16	14	53	55	896	90.0	-469256.0	-181.0	-5678144.0
16	14	53	55	896	92.0	-393084.0	-3597.0	-5679415.0
16	14	53	55	896	93.0	-372499.0	-6284.0	-5679074.0
16	14	53	55	897	94.0	-378583.0	-8276.0	-5678255.0
16	14	53	55	897	95.0	-406877.0	-9301.0	-5678593.0
16	14	53	55	897	96.0	-413733.0	-10498.0	-5679692.0
16	14	53	55	897	97.0	-409419.0	-11454.0	-5679165.0
16	14	53	55	939	98.0	-380282.0	-12536.0	-5678357.0
16	14	53	55	940	99.0	-334793.0	-13267.0	-5677831.0
16	14	53	55	940	100.0	-267922.0	-13541.0	-5679156.0
16	14	53	55	940	101.0	-175255.0	-14460.0	-5679366.0
16	14	53	55	940	102.0	-63514.0	-15252.0	-5678604.0
16	14	53	55	941	103.0	63989.0	-16219.0	-5678097.0
16	14	53	55	941	104.0	183877.0	-16942.0	-5679330.0
16	14	53	55	941	105.0	303989.0	-17692.0	-5679339.0
16	14	53	55	941	106.0	408803.0	-18357.0	-5678645.0
16	14	53	55	942	107.0	499662.0	-19071.0	-5678169.0
16	14	53	55	942	108.0	563394.0	-19942.0	-5679455.0
16	14	53	55	942	109.0	611488.0	-20654.0	-5679586.0
16	14	53	55	942	110.0	633195.0	-22038.0	-5678836.0
16	14	53	55	943	111.0	633788.0	-22742.0	-5678402.0
16	14	53	55	943	112.0	613768.0	-23341.0	-5679801.0
16	14	53	55	943	114.0	552194.0	-24715.0	-5678956.0
16	14	53	55	943	115.0	507291.0	-26106.0	-5678411.0
16	14	53	55	944	116.0	455369.0	-26990.0	-5679685.0
16	14	53	55	944	117.0	394710.0	-27637.0	-5679617.0
16	14	53	55	944	118.0	338242.0	-28631.0	-5678886.0
16	14	53	55	944	119.0	290252.0	-29465.0	-5678106.0
16	14	53	55	990	120.0	251486.0	-29735.0	-5678854.0
16	14	53	55	990	121.0	217226.0	-29811.0	-5679376.0
16	14	53	55	990	122.0	204864.0	-29427.0	-5678705.0
16	14	53	55	991	123.0	200363.0	-29206.0	-5678242.0
16	14	53	55	991	124.0	210913.0	-29544.0	-5679148.0
16	14	53	55	991	125.0	214206.0	-29856.0	-5678788.0
16	14	53	55	991	126.0	222974.0	-30496.0	-5678184.0
16	14	53	55	992	127.0	229339.0	-30942.0	-5679013.0
16	14	53	55	992	128.0	232921.0	-31162.0	-5679567.0
16	14	53	55	992	129.0	215326.0	-30868.0	-5678751.0
16	14	53	55	992	130.0	182144.0	-31460.0	-5678091.0
16	14	53	55	992	131.0	149313.0	-32016.0	-5678693.0
16	14	53	55	993	132.0	108368.0	-32179.0	-5679555.0
16	14	53	55	993	133.0	58648.0	-32397.0	-5678757.0
16	14	53	55	993	134.0	9916.0	-32767.0	-5678132.0
16	14	53	55	993	136.0	-58921.0	-32205.0	-5679732.0
16	14	53	55	993	137.0	-103149.0	-31954.0	-5678930.0
16	14	53	55	994	138.0	-146648.0	-32856.0	-5678229.0
16	14	53	55	994	139.0	-173462.0	-32886.0	-5678740.0
16	14	53	55	994	140.0	-186739.0	-32268.0	-5679676.0
16	14	53	55	994	141.0	-174667.0	-32061.0	-5678932.0
16	14	53	55	994	142.0	-141326.0	-32062.0	-5678357.0
16	14	53	56	41	143.0	-88959.0	-31657.0	-5679297.0
16	14	53	56	42	144.0	-32573.0	-31176.0	-5679744.0
16	14	53	56	42	145.0	14304.0	-29929.0	-5678938.0
16	14	53	56	42	146.0	41105.0	-28664.0	-5678204.0
16	14	53	56	43	147.0	43101.0	-27928.0	-5678340.0
16	14	53	56	43	148.0	46492.0	-27224.0	-5679674.0
16	14	53	56	43	149.0	52331.0	-26491.0	-5679137.0
16	14	53	56	44	150.0	52822.0	-26304.0	-5678389.0
16	14	53	56	44	151.0	34357.0	-25974.0	-5678541.0
16	14	53	56	44	152.0	-5996.0	-25882.0	-5679734.0
16	14	53	56	44	153.0	-66623.0	-24944.0	-5679172.0
16	14	53	56	45	154.0	-139108.0	-24384.0	-5678430.0
16	14	53	56	45	155.0	-213124.0	-23709.0	-5679329.0
16	14	53	56	45	156.0	-281691.0	-23186.0	-5680083.0
16	14	53	56	45	157.0	-348884.0	-21419.0	-5679359.0
16	14	53	56	46	159.0	-431901.0	-20198.0	-5678929.0
16	14	53	56	46	160.0	-432304.0	-20506.0	-5680055.0
16	14	53	56	46	161.0	-426075.0	-20069.0	-5679496.0
16	14	53	56	46	162.0	-416299.0	-19486.0	-5678690.0
16	14	53	56	47	163.0	-396520.0	-18711.0	-5679028.0
16	14	53	56	47	164.0	-365825.0	-18013.0	-5680178.0
16	14	53	56	47	165.0	-322921.0	-16939.0	-5679660.0
16	14	53	56	47	166.0	-271713.0	-15927.0	-5678817.0
16	14	53	56	47	167.0	-207174.0	-13996.0	-5678722.0
16	14	53	56	48	168.0	-149278.0	-12673.0	-5680146.0
16	14	53	56	48	169.0	-108174.0	-11697.0	-5679924.0
16	14	53	56	48	170.0	-94823.0	-11347.0	-5679067.0
16	14	53	56	48	171.0	-81971.0	-11212.0	-5679260.0
16	14	53	56	49	172.0	-83973.0	-10850.0	-5680369.0
16	14	53	56	49	173.0	-86954.0	-10260.0	-5679891.0
16	14	53	56	92	174.0	-93791.0	-9683.0	-5679085.0
16	14	53	56	93	175.0	-94126.0	-8762.0	-5679775.0
16	14	53	56	93	176.0	-90581.0	-7759.0	-5680717.0
16	14	53	56	93	177.0	-74895.0	-7239.0	-5680157.0
16	14	53	56	93	178.0	-37730.0	-6632.0	-5679306.0
16	14	53	56	94	179.0	20184.0	-5787.0	-5679052.0
16	14	53	56	94	181.0	169356.0	-4674.0	-5680220.0
16	14	53	56	94	182.0	252041.0	-5272.0	-5679411.0
16	14	53	56	94	183.0	310686.0	-6092.0	-5679776.0
16	14	53	56	94	184.0	354976.0	-5769.0	-5680927.0
16	14	53	56	95	185.0	364220.0	-5526.0	-5680376.0
16	14	53	56	95	186.0	352523.0	-4994.0	-5679589.0
16	14	53	56	95	187.0	325094.0	-4518.0	-5679400.0
16	14	53	56	95	188.0	300943.0	-4194.0	-5680583.0
16	14	53	56	96	189.0	296306.0	-3756.0	-5680271.0
16	14	53	56	96	190.0	293490.0	-2455.0	-5679474.0
16	14	53	56	96	191.0	295218.0	-2042.0	-5679415.0
16	14	53	56	96	192.0	279435.0	-2308.0	-5680788.0
16	14	53	56	96	193.0	250226.0	-2517.0	-5680399.0
16	14	53	56	97	194.0	203519.0	-2676.0	-5679605.0
16	14	53	56	97	195.0	160798.0	-2692.0	-5679104.0
16	14	53	56	97	196.0	102487.0	-2984.0	-5680476.0
16	14	53	56	97	197.0	53587.0	-2459.0	-5680537.0
16	14	53	56	98	198.0	25490.0	-2085.0	-5679782.0
16	14	53	56	98	199.0	15364.0	-2220.0	-5679126.0
16	14	53	56	98	200.0	21683.0	-1866.0	-5680232.0
16	14	53	56	99	201.0	37851.0	-2217.0	-5680631.0
16	14	53	56	99	202.0	49710.0	-2435.0	-5679900.0
16	14	53	56	99	204.0	13989.0	-3005.0	-5680572.0
16	14	53	56	99	205.0	-27397.0	-4143.0	-5680002.0
16	14	53	56	100	206.0	-63002.0	-5000.0	-5679236.0
16	14	53	56	100	207.0	-75147.0	-4996.0	-5679356.0
16	14	53	56	100	208.0	-96685.0	-4954.0	-5679956.0
16	14	53	56	101	209.0	-132897.0	-4837.0	-5679298.0
16	14	53	56	134	210.0	-193308.0	-4921.0	-5679292.0
16	14	53	56	135	211.0	-255767.0	-4581.0	-5680486.0
16	14	53	56	135	212.0	-310981.0	-4002.0	-5680004.0
16	14	53	56	135	213.0	-339799.0	-4311.0	-5679182.0
16	14	53	56	136	214.0	-361086.0	-4104.0	-5679377.0
16	14	53	56	136	215.0	-375811.0	-3547.0	-5680496.0
16	14	53	56	136	216.0	-350626.0	-3723.0	-5679997.0
16	14	53	56	137	217.0	-303066.0	-3369.0	-5679172.0
16	14	53	56	137	218.0	-234921.0	-3323.0	-5679014.0
16	14	53	56	137	219.0	-166337.0	-3997.0	-5680196.0
16	14	53	56	137	220.0	-90706.0	-3692.0	-5679881.0
16	14	53	56	138	221.0	-20194.0	-3651.0	-5679086.0
16	14	53	56	138	222.0	38272.0	-3956.0	-5679672.0
16	14	53	56	138	223.0	87689.0	-4104.0	-5680505.0
16	14	53	56	139	224.0	111024.0	-4131.0	-5679881.0
16	14	53	56	139	226.0	145208.0	-4462.0	-5679465.0
16	14	53	56	139	227.0	165571.0	-4294.0	-5680525.0
16	14	53	56	139	228.0	184916.0	-5348.0	-5679987.0
16	14	53	56	140	229.0	202434.0	-5377.0	-5679152.0
16	14	53	56	183	230.0	225239.0	-5341.0	-5679027.0
16	14	53	56	183	231.0	239503.0	-5299.0	-5680314.0
16	14	53	56	183	232.0	259978.0	-4967.0	-5680052.0
16	14	53	56	184	233.0	264221.0	-5185.0	-5679181.0
16	14	53	56	184	234.0	272446.0	-4822.0	-5679292.0
16	14	53	56	184	235.0	258103.0	-3670.0	-5680339.0
16	14	53	56	184	236.0	234173.0	-3665.0	-5679867.0
16	14	53	56	185	237.0	208705.0	-3516.0	-5679049.0
16	14	53	56	185	238.0	183456.0	-3299.0	-5679268.0
16	14	53	56	185	239.0	167868.0	-3535.0	-5680399.0
16	14	53	56	186	240.0	137961.0	-3314.0	-5679889.0
16	14	53	56	186	241.0	121647.0	-3505.0	-5679058.0
16	14	53	56	186	242.0	100339.0	-3222.0	-5679651.0
16	14	53	56	186	243.0	79349.0	-3256.0	-5680841.0
16	14	53	56	187	244.0	53349.0	-3052.0	-5680227.0
16	14	53	56	187	245.0	15008.0	-2533.0	-5679416.0
16	14	53	56	187	246.0	-3741.0	-2817.0	-5679017.0
16	14	53	56	187	247.0	-16811.0	-3122.0	-5680312.0
16	14	53	56	188	249.0	-52962.0	-2237.0	-5679421.0
16	14	53	56	188	250.0	-85814.0	-2943.0	-5678984.0
16	14	53	56	189	251.0	-113882.0	-3669.0	-5680407.0
16	14	53	56	189	252.0	-142527.0	-3247.0	-5680326.0
16	14	53	56	189	253.0	-165135.0	-3628.0	-5679582.0
16	14	53	56	189	254.0	-195599.0	-3977.0	-5679789.0
16	14	53	56	231	255.0	-238786.0	-3656.0	-5680535.0
16	14	53	56	231	0.0	-273082.0	-2717.0	-5679877.0
16	14	53	56	231	1.0	-293050.0	-1180.0	-5679137.0
16	14	53	56	232	2.0	-303314.0	-891.0	-5679439.0
16	14	53	56	232	3.0	-305156.0	-1093.0	-5680052.0
16	14	53	56	232	4.0	-304679.0	-1313.0	-5679384.0
16	14	53	56	233	5.0	-291520.0	-1721.0	-5679049.0
16	14	53	56	233	6.0	-267649.0	-1192.0	-5680326.0
16	14	53	56	233	7.0	-243807.0	-1275.0	-5680086.0
16	14	53	56	233	8.0	-218285.0	-962.0	-5679287.0
16	14	53	56	234	9.0	-195171.0	-474.0	-5679008.0
16	14	53	56	234	10.0	-157173.0	-619.0	-5680390.0
16	14	53	56	234	11.0	-95592.0	-174.0	-5680229.0
16	14	53	56	234	12.0	-21456.0	334.0	-5679431.0
16	14	53	56	235	13.0	67864.0	619.0	-5679172.0
16	14	53	56	235	15.0	203773.0	858.0	-5680347.0
16	14	53	56	235	16.0	258998.0	258.0	-5679537.0
16	14	53	56	236	17.0	300779.0	-614.0	-5679771.0
16	14	53	56	236	18.0	337858.0	-372.0	-5680737.0
16	14	53	56	236	19.0	360514.0	39.0	-5680167.0
16	14	53	56	236	20.0	354483.0	229.0	-5679312.0
16	14	53	56	237	21.0	343046.0	595.0	-5678955.0
16	14	53	56	279	22.0	332535.0	547.0	-5680074.0
16	14	53	56	279	23.0	323601.0	1194.0	-5679982.0
16	14	53	56	280	24.0	328869.0	1717.0	-5679159.0
16	14	53	56	280	25.0	336615.0	1948.0	-5679109.0
16	14	53	56	280	26.0	338876.0	2248.0	-5680245.0
16	14	53	56	281	27.0	339984.0	2368.0	-5679904.0
16	14	53	56	281	28.0	332274.0	2317.0	-5679127.0
16	14	53	56	281	29.0	326384.0	2811.0	-5679835.0
16	14	53	56	282	30.0	308388.0	3110.0	-5680563.0
16	14	53	56	282	31.0	272251.0	3661.0	-5679916.0
16	14	53	56	282	32.0	237452.0	3665.0	-5679100.0
16	14	53	56	282	33.0	195323.0	4227.0	-5679589.0
16	14	53	56	283	34.0	149443.0	4476.0	-5680554.0
16	14	53	56	283	35.0	117309.0	3973.0	-5679899.0
16	14	53	56	283	36.0	90533.0	4074.0	-5679106.0
16	14	53	56	284	38.0	67436.0	3943.0	-5679678.0
16	14	53	56	284	39.0	56036.0	3591.0	-5678986.0
16	14	53	56	284	40.0	30618.0	3758.0	-5678549.0
16	14	53	56	284	41.0	-10491.0	3738.0	-5679806.0
16	14	53	56	285	42.0	-70054.0	3879.0	-5679648.0
16	14	53	56	285	43.0	-120306.0	4270.0	-5678910.0
16	14	53	56	329	44.0	-150963.0	4845.0	-5679009.0
16	14	53	56	329	45.0	-170171.0	4903.0	-5680219.0
16	14	53	56	329	46.0	-172422.0	5453.0	-5679620.0
16	14	53	56	330	47.0	-176505.0	5933.0	-5678896.0
16	14	53	56	330	48.0	-193978.0	5319.0	-5679419.0
16	14	53	56	330	49.0	-215755.0	5398.0	-5680396.0
16	14	53	56	331	50.0	-227219.0	6435.0	-5679699.0
16	14	53	56	331	51.0	-222677.0	7056.0	-5678877.0
16	14	53	56	331	52.0	-200416.0	7073.0	-5678518.0
16	14	53	56	331	53.0	-183412.0	7415.0	-5679791.0
16	14	53	56	332	54.0	-162235.0	7566.0	-5679578.0
16	14	53	56	332	55.0	-129710.0	7375.0	-5678788.0
16	14	53	56	332	56.0	-163850.0	7022.0	-5678941.0
16	14	53	56	332	57.0	-213119.0	6630.0	-5680081.0
16	14	53	56	333	58.0	-231319.0	6542.0	-5679566.0
16	14	53	56	333	60.0	-237989.0	7331.0	-5679036.0
16	14	53	56	333	61.0	-231001.0	7321.0	-5680044.0
16	14	53	56	333	62.0	-209016.0	6589.0	-5679491.0
16	14	53	56	334	63.0	-168363.0	6966.0	-5678722.0
16	14	53	56	334	64.0	-118957.0	6622.0	-5679042.0
16	14	53	56	334	65.0	-73214.0	6807.0	-5680065.0
16	14	53	56	335	66.0	-25024.0	7089.0	-5679502.0
16	14	53	56	379	67.0	19023.0	7406.0	-5678662.0
16	14	53	56	379	68.0	78821.0	7689.0	-5679299.0
16	14	53	56	380	69.0	162321.0	8809.0	-5680176.0
16	14	53	56	380	70.0	238849.0	9375.0	-5679581.0
16	14	53	56	380	71.0	300324.0	9723.0	-5678764.0
16	14	53	56	381	72.0	329273.0	9744.0	-5678844.0
16	14	53	56	381	73.0	325526.0	9168.0	-5679998.0
16	14	53	56	381	74.0	308338.0	9461.0	-5679570.0
16	14	53	56	431	75.0	278503.0	9663.0	-5678784.0
16	14	53	56	432	76.0	230734.0	9710.0	-5679411.0
16	14	53	56	432	77.0	180926.0	9649.0	-5680279.0
16	14	53	56	432	78.0	135664.0	9843.0	-5679666.0
16	14	53	56	433	79.0	105141.0	10121.0	-5678845.0
16	14	53	56	433	80.0	96018.0	10528.0	-5679419.0
16	14	53	56	433	81.0	94864.0	10541.0	-5680504.0
16	14	53	56	433	83.0	125221.0	10464.0	-5679036.0
16	14	53	56	434	84.0	126963.0	9205.0	-5678979.0
16	14	53	56	434	85.0	110998.0	8711.0	-5680310.0
16	14	53	56	434	86.0	80668.0	9396.0	-5679942.0
16	14	53	56	435	87.0	36339.0	10750.0	-5679134.0
16	14	53	56	435	88.0	-15113.0	10663.0	-5679453.0
16	14	53	56	435	89.0	-67878.0	10988.0	-5680313.0
16	14	53	56	436	90.0	-119790.0	10980.0	-5679676.0
16	14	53	56	436	105.0	718869.0	11129.0	-5680247.0
16	14	53	56	436	106.0	936298.0	10197.0	-5679767.0
16	14	53	56	436	107.0	1024848.0	9255.0	-5679185.0
16	14	53	56	437	108.0	707861.0	9529.0	-5680164.0
16	14	53	56	437	109.0	191668.0	10080.0	-5680565.0
16	14	53	56	437	110.0	-500259.0	10284.0	-5679684.0
16	14	53	56	438	111.0	-1198912.0	10531.0	-5678912.0
16	14	53	56	483	112.0	-1684388.0	10511.0	-5679255.0
16	14	53	56	483	113.0	-1696727.0	10666.0	-5680104.0
16	14	53	56	483	114.0	-1095154.0	11346.0	-5679419.0
16	14	53	56	484	115.0	-143461.0	12033.0	-5678838.0
16	14	53	56	484	116.0	692063.0	12377.0	-5679512.0
16	14	53	56	484	117.0	1153745.0	11979.0	-5680161.0
16	14	53	56	485	118.0	1231115.0	12199.0	-5679376.0
16	14	53	56	485	119.0	1001993.0	11946.0	-5678736.0
16	14	53	56	485	120.0	626426.0	11727.0	-5679458.0
16	14	53	56	486	121.0	313824.0	11748.0	-5680159.0
16	14	53	56	486	122.0	110279.0	11469.0	-5679341.0
16	14	53	56	486	123.0	-140787.0	11830.0	-5678903.0
16	14	53	56	486	124.0	-525816.0	11666.0	-5680127.0
16	14	53	56	535	125.0	-959277.0	11591.0	-5680172.0
16	14	53	56	535	126.0	-1287954.0	11179.0	-5679262.0
16	14	53	56	535	128.0	-1794081.0	11336.0	-5680164.0
16	14	53	56	536	129.0	-1711771.0	10053.0	-5680152.0
16	14	53	56	536	130.0	-1401671.0	9786.0	-5679352.0
16	14	53	56	536	131.0	-1057686.0	9821.0	-5678731.0
16	14	53	56	536	132.0	-694116.0	10167.0	-5679715.0
16	14	53	56	537	133.0	-283536.0	11316.0	-5680337.0
16	14	53	56	537	134.0	144410.0	11913.0	-5679626.0
16	14	53	56	537	135.0	492408.0	11498.0	-5679097.0
16	14	53	56	537	136.0	668522.0	11764.0	-5680269.0
16	14	53	56	538	137.0	605028.0	11711.0	-5680576.0
16	14	53	56	538	138.0	386545.0	11314.0	-5679776.0
16	14	53	56	538	139.0	180568.0	11477.0	-5679251.0
16	14	53	56	539	140.0	48193.0	11468.0	-5680399.0
16	14	53	56	539	150.0	280269.0	10412.0	-5680067.0
16	14	53	56	539	151.0	277585.0	9473.0	-5679293.0
16	14	53	56	539	152.0	254861.0	8678.0	-5680070.0
16	14	53	56	540	153.0	218226.0	8547.0	-5680841.0
16	14	53	56	540	154.0	164286.0	8316.0	-5680221.0
16	14	53	56	540	155.0	94290.0	8433.0	-5679942.0
16	14	53	56	540	156.0	35922.0	9354.0	-5681656.0
16	14	53	56	541	157.0	-6077.0	9208.0	-5681505.0
16	14	53	56	541	158.0	-27826.0	8883.0	-5680779.0
16	14	53	56	541	159.0	-30886.0	8855.0	-5679995.0
16	14	53	56	541	160.0	-23625.0	9143.0	-5680897.0
16	14	53	56	542	161.0	2569.0	9286.0	-5681607.0
16	14	53	56	542	173.0	36435.0	9508.0	-5681949.0
16	14	53	56	542	174.0	48963.0	8318.0	-5681199.0
16	14	53	56	543	175.0	66566.0	8217.0	-5680903.0
16	14	53	56	594	176.0	93903.0	8084.0	-5682162.0
16	14	53	56	595	177.0	126076.0	7704.0	-5681931.0
16	14	53	56	595	178.0	154823.0	7556.0	-5681140.0
16	14	53	56	595	179.0	166101.0	7750.0	-5680677.0
16	14	53	56	596	180.0	154663.0	8206.0	-5681749.0
16	14	53	56	596	181.0	141423.0	9659.0	-5681731.0
16	14	53	56	596	182.0	128417.0	9684.0	-5680926.0
16	14	53	56	597	183.0	114699.0	9426.0	-5680366.0
16	14	53	56	597	184.0	110062.0	9242.0	-5681349.0
16	14	53	56	597	185.0	102698.0	8920.0	-5681617.0
16	14	53	56	597	186.0	93940.0	8769.0	-5680787.0
16	14	53	56	598	187.0	81156.0	8754.0	-5680796.0
16	14	53	56	598	188.0	50668.0	9080.0	-5681798.0
16	14	53	56	598	189.0	15240.0	9103.0	-5681349.0
16	14	53	56	599	190.0	-1876.0	9456.0	-5680507.0
16	14	53	56	599	191.0	3966.0	10122.0	-5680279.0
16	14	53	56	599	192.0	16617.0	10633.0	-5681574.0
16	14	53	56	600	193.0	29661.0	11087.0	-5681399.0
16	14	53	56	600	195.0	113855.0	11027.0	-5680396.0
16	14	53	56	600	196.0	170541.0	10536.0	-5681631.0
16	14	53	56	601	197.0	226870.0	10442.0	-5681376.0
16	14	53	56	601	198.0	270741.0	10899.0	-5680552.0
16	14	53	56	601	199.0	294655.0	11622.0	-5680187.0
16	14	53	56	601	200.0	301248.0	12326.0	-5681583.0
16	14	53	56	641	201.0	279575.0	13516.0	-5681715.0
16	14	53	56	642	202.0	241658.0	14863.0	-5680888.0
16	14	53	56	642	203.0	186704.0	17199.0	-5680559.0
16	14	53	56	642	204.0	123654.0	18640.0	-5681946.0
16	14	53	56	643	205.0	63058.0	20136.0	-5681913.0
16	14	53	56	643	206.0	5031.0	21768.0	-5681056.0
16	14	53	56	643	207.0	-45946.0	22958.0	-5680744.0
16	14	53	56	644	208.0	-83960.0	25360.0	-5681882.0
16	14	53	56	644	209.0	-104964.0	27613.0	-5681657.0
16	14	53	56	644	210.0	-106644.0	30001.0	-5680811.0
16	14	53	56	644	211.0	-103459.0	32032.0	-5680112.0
16	14	53	56	645	212.0	-93623.0	34400.0	-5681002.0
16	14	53	56	645	213.0	-85057.0	36376.0	-5681504.0
16	14	53	56	645	214.0	-75134.0	38834.0	-5680764.0
16	14	53	56	646	215.0	-71952.0	41443.0	-5680279.0
16	14	53	56	646	217.0	-104486.0	45041.0	-5681591.0
16	14	53	56	646	218.0	-106818.0	46066.0	-5680855.0
16	14	53	56	647	219.0	-91001.0	46634.0	-5680411.0
16	14	53	56	647	220.0	-65577.0	48403.0	-5681665.0
16	14	53	56	647	221.0	-26654.0	49912.0	-5681662.0
16	14	53	56	648	222.0	26685.0	50717.0	-5680905.0
16	14	53	56	648	223.0	69721.0	51386.0	-5680436.0
16	14	53	56	689	224.0	86474.0	52226.0	-5681871.0
16	14	53	56	690	225.0	96152.0	52918.0	-5681889.0
16	14	53	56	690	226.0	118521.0	54538.0	-5681133.0
16	14	53	56	690	227.0	148213.0	54853.0	-5680640.0
16	14	53	56	691	228.0	162055.0	54853.0	-5681320.0
16	14	53	56	691	229.0	144923.0	55711.0	-5680801.0
16	14	53	56	691	230.0	105730.0	56482.0	-5680084.0
16	14	53	56	692	231.0	63140.0	56344.0	-5680349.0
16	14	53	56	692	232.0	21665.0	56029.0	-5681254.0
16	14	53	56	692	233.0	-6889.0	55374.0	-5680557.0
16	14	53	56	692	234.0	-19209.0	54491.0	-5680005.0
16	14	53	56	693	235.0	-13579.0	53711.0	-5681041.0
16	14	53	56	693	236.0	1211.0	53163.0	-5681545.0
16	14	53	56	693	237.0	29753.0	52218.0	-5680722.0
16	14	53	56	694	238.0	76796.0	51950.0	-5680237.0
16	14	53	56	694	240.0	214638.0	50798.0	-5681485.0
16	14	53	56	694	241.0	279419.0	48722.0	-5680661.0
16	14	53	56	695	242.0	314532.0	46855.0	-5679977.0
16	14	53	56	695	243.0	314278.0	45851.0	-5680506.0
16	14	53	56	695	244.0	279299.0	45216.0	-5681557.0
16	14	53	56	696	245.0	198001.0	43476.0	-5680792.0
16	14	53	56	736	246.0	75679.0	41981.0	-5680113.0
16	14	53	56	737	247.0	-72167.0	40644.0	-5680839.0
16	14	53	56	737	248.0	-256999.0	40334.0	-5681506.0
16	14	53	56	737	249.0	-543826.0	39021.0	-5680688.0
16	14	53	56	738	250.0	-981262.0	37202.0	-5679982.0
16	14	53	56	738	251.0	-1428936.0	35878.0	-5680464.0
16	14	53	56	738	252.0	-1711367.0	35321.0	-5681147.0
16	14	53	56	738	253.0	-1522792.0	33406.0	-5680435.0
16	14	53	56	739	254.0	-707497.0	31664.0	-5679875.0
16	14	53	56	739	255.0	370288.0	30197.0	-5680733.0
16	14	53	56	739	0.0	1093617.0	29171.0	-5681474.0
16	14	53	56	740	1.0	1241668.0	28120.0	-5680706.0
16	14	53	56	740	2.0	944095.0	26651.0	-5680001.0
16	14	53	56	740	3.0	382592.0	24849.0	-5680567.0
16	14	53	56	740	4.0	-137519.0	23246.0	-5681287.0
16	14	53	56	741	6.0	-391961.0	20278.0	-5679798.0
16	14	53	56	741	7.0	-299693.0	18181.0	-5680121.0
16	14	53	56	741	8.0	-160937.0	14768.0	-5681256.0
16	14	53	56	742	9.0	-11372.0	12864.0	-5680711.0
16	14	53	56	742	10.0	101801.0	11313.0	-5680006.0
16	14	53	56	742	11.0	158523.0	9802.0	-5680735.0
16	14	53	56	742	12.0	160910.0	8117.0	-5681343.0
16	14	53	56	788	13.0	126277.0	6453.0	-5680619.0
16	14	53	56	788	14.0	60498.0	5412.0	-5679836.0
16	14	53	56	789	15.0	-37567.0	5809.0	-5680233.0
16	14	53	56	789	16.0	-151317.0	4456.0	-5681172.0
16	14	53	56	789	17.0	-233348.0	2502.0	-5680532.0
16	14	53	56	790	18.0	-270862.0	1111.0	-5679722.0
16	14	53	56	790	19.0	-271514.0	-407.0	-5680102.0
16	14	53	56	790	20.0	-224012.0	-1816.0	-5680950.0
16	14	53	56	790	21.0	-155481.0	-3422.0	-5680343.0
16	14	53	56	791	22.0	-96423.0	-4899.0	-5679515.0
16	14	53	56	791	23.0	-71345.0	-6257.0	-5679907.0
16	14	53	56	791	24.0	-69623.0	-7462.0	-5681051.0
16	14	53	56	792	25.0	-82095.0	-8562.0	-5680534.0
16	14	53	56	792	26.0	-104356.0	-9499.0	-5679694.0
16	14	53	56	792	27.0	-131068.0	-10590.0	-5680062.0
16	14	53	56	792	29.0	-193911.0	-13352.0	-5680577.0
16	14	53	56	793	30.0	-207219.0	-15184.0	-5679806.0
16	14	53	56	793	31.0	-185667.0	-16682.0	-5680727.0
16	14	53	56	793	32.0	-138652.0	-17362.0	-5681412.0
16	14	53	56	794	33.0	-73910.0	-17813.0	-5680763.0
16	14	53	56	794	34.0	-10552.0	-18518.0	-5679934.0
16	14	53	56	846	35.0	55897.0	-19250.0	-5679899.0
16	14	53	56	846	36.0	141410.0	-19746.0	-5681222.0
16	14	53	56	908	37.0	241812.0	-19247.0	-5680894.0
16	14	53	56	909	38.0	322694.0	-19887.0	-5680075.0
16	14	53	56	909	39.0	375083.0	-21041.0	-5680324.0
16	14	53	56	909	40.0	402487.0	-21719.0	-5681359.0
16	14	53	56	910	41.0	403999.0	-22557.0	-5680798.0
16	14	53	56	910	42.0	389367.0	-22499.0	-5680083.0
16	14	53	56	910	43.0	360123.0	-23292.0	-5680761.0
16	14	53	56	911	44.0	324898.0	-24327.0	-5681532.0
16	14	53	56	911	45.0	283316.0	-25030.0	-5680838.0
16	14	53	56	911	46.0	230170.0	-25458.0	-5680067.0
16	14	53	56	911	47.0	176496.0	-26547.0	-5680219.0
16	14	53	56	912	48.0	127407.0	-26905.0	-5680629.0
16	14	53	56	912	49.0	78315.0	-27078.0	-5679951.0
16	14	53	56	912	74.0	-270202.0	-27502.0	-5679709.0
16	14	53	56	912	75.0	-202520.0	-27762.0	-5680818.0
16	14	53	56	913	76.0	-154604.0	-27152.0	-5680477.0
16	14	53	56	913	77.0	-121717.0	-26754.0	-5679630.0
16	14	53	56	913	78.0	-103784.0	-26261.0	-5679904.0
16	14	53	56	914	79.0	-98596.0	-25459.0	-5680892.0
16	14	53	56	914	80.0	-90698.0	-24907.0	-5680323.0
16	14	53	56	914	81.0	-81942.0	-23992.0	-5679629.0
16	14	53	56	915	82.0	-67763.0	-22388.0	-5680690.0
16	14	53	56	915	83.0	-40332.0	-22161.0	-5681032.0
16	14	53	56	915	84.0	-4640.0	-21660.0	-5680275.0
16	14	53	56	915	85.0	30643.0	-20060.0	-5679446.0
16	14	53	56	916	86.0	50186.0	-19402.0	-5679244.0
16	14	53	56	916	87.0	69136.0	-19010.0	-5680559.0
16	14	53	56	916	88.0	77343.0	-18384.0	-5680245.0
16	14	53	56	917	89.0	68397.0	-18312.0	-5679480.0
16	14	53	56	917	90.0	30879.0	-17319.0	-5679876.0
16	14	53	56	917	91.0	-23714.0	-16412.0	-5680921.0
16	14	53	56	917	92.0	-70559.0	-15764.0	-5680282.0
16	14	53	56	918	93.0	-90545.0	-14827.0	-5679531.0
16	14	53	56	918	94.0	-78377.0	-14051.0	-5679548.0
16	14	53	56	918	96.0	-23861.0	-12427.0	-5679366.0
16	14	53	56	919	97.0	-11922.0	-12259.0	-5679318.0
16	14	53	56	919	98.0	-5741.0	-12386.0	-5680450.0
16	14	53	56	920	99.0	7724.0	-11474.0	-5679957.0
16	14	53	56	920	100.0	23200.0	-11156.0	-5679167.0
16	14	53	56	920	101.0	36290.0	-10036.0	-5679574.0
16	14	53	56	920	102.0	45458.0	-9287.0	-5680491.0
16	14	53	56	973	103.0	50544.0	-8854.0	-5679867.0
16	14	53	56	973	104.0	57603.0	-7740.0	-5679050.0
16	14	53	56	974	105.0	77040.0	-5374.0	-5679009.0
16	14	53	56	974	106.0	107191.0	-4596.0	-5680283.0
16	14	53	56	974	107.0	150244.0	-4439.0	-5679938.0
16	14	53	56	975	108.0	189280.0	-3785.0	-5679158.0
16	14	53	56	975	109.0	200059.0	-4010.0	-5679776.0
16	14	53	56	975	110.0	184828.0	-3976.0	-5680702.0
16	14	53	56	975	111.0	160869.0	-3591.0	-5680067.0
16	14	53	56	976	112.0	136694.0	-3275.0	-5679254.0
16	14	53	56	976	113.0	107832.0	-2665.0	-5679594.0
16	14	53	56	976	114.0	76370.0	-1843.0	-5680642.0
16	14	53	56	977	115.0	41204.0	-1544.0	-5680076.0
16	14	53	56	977	116.0	15311.0	-1176.0	-5679208.0
16	14	53	56	977	117.0	12199.0	-842.0	-5679191.0
16	14	53	56	978	119.0	51710.0	-947.0	-5680161.0
16	14	53	56	978	120.0	74662.0	-1601.0	-5679337.0
16	14	53	56	978	121.0	75069.0	-1659.0	-5679776.0
16	14	53	56	978	122.0	67409.0	-1249.0	-5680697.0
16	14	53	56	979	123.0	52397.0	-979.0	-5680112.0
16	14	53	56	979	124.0	42571.0	-488.0	-5679282.0
16	14	53	57	33	125.0	33760.0	-254.0	-5679509.0
16	14	53	57	34	126.0	18903.0	528.0	-5680666.0
16	14	53	57	34	127.0	7682.0	2016.0	-5680173.0
16	14	53	57	34	128.0	9294.0	1548.0	-5679354.0
16	14	53	57	34	129.0	7584.0	1591.0	-5679941.0
16	14	53	57	35	130.0	-13427.0	1356.0	-5680834.0
16	14	53	57	35	131.0	-47303.0	987.0	-5680135.0
16	14	53	57	35	132.0	-84908.0	1381.0	-5679337.0
16	14	53	57	35	133.0	-127374.0	1581.0	-5679482.0
16	14	53	57	36	134.0	-174719.0	1514.0	-5680726.0
16	14	53	57	36	135.0	-220278.0	1201.0	-5680199.0
16	14	53	57	36	136.0	-265361.0	690.0	-5679429.0
16	14	53	57	36	137.0	-301324.0	550.0	-5678986.0
16	14	53	57	37	138.0	-326914.0	478.0	-5680289.0
16	14	53	57	37	139.0	-333322.0	45.0	-5680186.0
16	14	53	57	37	141.0	-284084.0	232.0	-5679555.0
16	14	53	57	37	142.0	-245074.0	-269.0	-5680277.0
16	14	53	57	38	143.0	-202442.0	-1107.0	-5679649.0
16	14	53	57	38	144.0	-180621.0	-1016.0	-5678897.0
16	14	53	57	38	145.0	-181577.0	-996.0	-5679491.0
16	14	53	57	39	146.0	-210446.0	-915.0	-5679984.0
16	14	53	57	39	147.0	-250298.0	-1041.0	-5679257.0
16	14	53	57	39	148.0	-286146.0	-1264.0	-5679299.0
16	14	53	57	39	149.0	-311487.0	-849.0	-5680360.0
16	14	53	57	40	150.0	-323447.0	-518.0	-5679768.0
16	14	53	57	40	151.0	-325878.0	-774.0	-5679004.0
16	14	53	57	40	152.0	-322351.0	-1525.0	-5679065.0
16	14	53	57	40	153.0	-321036.0	-1590.0	-5680039.0
16	14	53	57	41	154.0	-319157.0	-872.0	-5679490.0
16	14	53	57	41	155.0	-312357.0	-1084.0	-5678799.0
16	14	53	57	41	156.0	-301450.0	-1157.0	-5679118.0
16	14	53	57	42	157.0	-287844.0	-1916.0	-5680274.0
16	14	53	57	42	158.0	-279437.0	-1900.0	-5679639.0
16	14	53	57	42	159.0	-268774.0	-2056.0	-5678948.0
16	14	53	57	42	160.0	-246331.0	-2251.0	-5679799.0
16	14	53	57	43	161.0	-216532.0	-2647.0	-5680266.0
16	14	53	57	43	162.0	-184383.0	-2373.0	-5679507.0
16	14	53	57	103	164.0	-90109.0	-1835.0	-5678772.0
16	14	53	57	104	165.0	-37544.0	-2687.0	-5680111.0
16	14	53	57	104	166.0	-137.0	-3140.0	-5679698.0
16	14	53	57	105	167.0	20266.0	-2699.0	-5678867.0
16	14	53	57	105	168.0	28821.0	-2273.0	-5679194.0
16	14	53	57	105	169.0	24298.0	-2517.0	-5680227.0
16	14	53	57	105	170.0	6981.0	-2987.0	-5679681.0
16	14	53	57	106	171.0	-22590.0	-2457.0	-5678917.0
16	14	53	57	106	172.0	-38032.0	-1087.0	-5679746.0
16	14	53	57	190	173.0	-32928.0	-1137.0	-5680599.0
16	14	53	57	190	174.0	-5561.0	-1358.0	-5679995.0
16	14	53	57	191	175.0	27869.0	-727.0	-5679156.0
16	14	53	57	191	176.0	52294.0	-636.0	-5679254.0
16	14	53	57	192	177.0	66879.0	-1519.0	-5680507.0
16	14	53	57	192	178.0	74839.0	-1425.0	-5680099.0
16	14	53	57	193	179.0	87387.0	-1486.0	-5679216.0
16	14	53	57	193	180.0	99581.0	-1268.0	-5679432.0
16	14	53	57	193	181.0	112288.0	-697.0	-5680611.0
16	14	53	57	194	182.0	123275.0	-963.0	-5680156.0
16	14	53	57	194	183.0	132987.0	-812.0	-5679330.0
16	14	53	57	195	184.0	138846.0	-151.0	-5679062.0
16	14	53	57	195	186.0	167303.0	244.0	-5680114.0
16	14	53	57	195	187.0	182826.0	-169.0	-5679309.0
16	14	53	57	196	188.0	199709.0	-391.0	-5679494.0
16	14	53	57	196	209.0	286959.0	2285.0	-5680136.0
16	14	53	57	197	210.0	265613.0	1036.0	-5679344.0
16	14	53	57	197	211.0	237669.0	893.0	-5679514.0
16	14	53	57	197	212.0	209429.0	1350.0	-5680704.0
16	14	53	57	198	213.0	186871.0	1684.0	-5680227.0
16	14	53	57	201	214.0	167779.0	2096.0	-5679405.0
16	14	53	57	201	215.0	148364.0	2651.0	-5679179.0
16	14	53	57	202	216.0	149105.0	3613.0	-5680451.0
16	14	53	57	202	217.0	168706.0	5227.0	-5680311.0
16	14	53	57	203	218.0	203583.0	4923.0	-5679477.0
16	14	53	57	203	219.0	235013.0	4841.0	-5679682.0
16	14	53	57	204	220.0	253463.0	5281.0	-5680836.0
16	14	53	57	205	221.0	245996.0	4793.0	-5680382.0
16	14	53	57	205	222.0	216729.0	5132.0	-5679572.0
16	14	53	57	206	223.0	184833.0	5946.0	-5679694.0
16	14	53	57	206	224.0	166337.0	6234.0	-5680951.0
16	14	53	57	207	225.0	153811.0	6068.0	-5680543.0
16	14	53	57	207	226.0	135416.0	6361.0	-5679684.0
16	14	53	57	207	227.0	122931.0	6625.0	-5679311.0
16	14	53	57	208	228.0	118053.0	6484.0	-5680447.0
16	14	53	57	209	229.0	103469.0	5894.0	-5680362.0
16	14	53	57	209	231.0	4516.0	5869.0	-5679544.0
16	14	53	57	210	232.0	-61229.0	5076.0	-5680631.0
16	14	53	57	210	233.0	-122947.0	4777.0	-5680177.0
16	14	53	57	211	234.0	-173097.0	5108.0	-5679359.0
16	14	53	57	212	235.0	-209009.0	5069.0	-5679492.0
16	14	53	57	212	236.0	-239631.0	5498.0	-5680800.0
16	14	53	57	276	237.0	-274596.0	5991.0	-5680367.0
16	14	53	57	276	238.0	-300534.0	6101.0	-5679551.0
16	14	53	57	277	239.0	-296233.0	6976.0	-5679837.0
16	14	53	57	277	240.0	-255594.0	7608.0	-5680880.0
16	14	53	57	277	241.0	-208396.0	7921.0	-5680282.0
16	14	53	57	277	242.0	-173965.0	8482.0	-5679454.0
16	14	53	57	278	243.0	-169359.0	8644.0	-5679025.0
16	14	53	57	278	244.0	-182907.0	8362.0	-5680421.0
16	14	53	57	278	245.0	-221959.0	8071.0	-5680304.0
16	14	53	57	279	246.0	-276390.0	8150.0	-5679585.0
16	14	53	57	279	247.0	-340994.0	8594.0	-5679084.0
16	14	53	57	279	248.0	-385696.0	8395.0	-5680324.0
16	14	53	57	280	249.0	-400550.0	7743.0	-5680278.0
16	14	53	57	280	250.0	-380902.0	7863.0	-5679536.0
16	14	53	57	280	251.0	-329092.0	8266.0	-5679416.0
16	14	53	57	280	253.0	-185771.0	9424.0	-5679556.0
16	14	53	57	281	254.0	-144660.0	8909.0	-5678973.0
16	14	53	57	281	255.0	-120878.0	8405.0	-5680106.0
16	14	53	57	281	0.0	-107741.0	8054.0	-5680628.0
16	14	53	57	281	1.0	-80799.0	7962.0	-5679844.0
16	14	53	57	282	2.0	-37410.0	7813.0	-5679330.0
16	14	53	57	282	3.0	36223.0	7959.0	-5680388.0
16	14	53	57	282	4.0	135569.0	8218.0	-5680574.0
16	14	53	57	283	5.0	254619.0	8227.0	-5679741.0
16	14	53	57	283	6.0	392400.0	9467.0	-5679157.0
16	14	53	57	283	7.0	545669.0	9876.0	-5680026.0
16	14	53	57	283	8.0	711526.0	10128.0	-5680458.0
16	14	53	57	284	9.0	901088.0	10541.0	-5679659.0
16	14	53	57	284	10.0	1058302.0	10156.0	-5679225.0
16	14	53	57	284	11.0	906628.0	9899.0	-5680376.0
16	14	53	57	284	12.0	507166.0	9714.0	-5680541.0
16	14	53	57	284	13.0	37483.0	9116.0	-5679658.0
16	14	53	57	285	14.0	-528409.0	9130.0	-5679537.0
16	14	53	57	285	15.0	-1015348.0	9054.0	-5680681.0
16	14	53	57	285	16.0	-1281162.0	9228.0	-5680311.0
16	14	53	57	285	17.0	-1100637.0	9043.0	-5679482.0
16	14	53	57	286	18.0	-500388.0	9771.0	-5678900.0
16	14	53	57	286	20.0	831766.0	9383.0	-5680582.0
16	14	53	57	286	21.0	1072561.0	8579.0	-5679850.0
16	14	53	57	287	22.0	1042901.0	8473.0	-5679294.0
16	14	53	57	287	23.0	902619.0	8288.0	-5680441.0
16	14	53	57	287	24.0	796476.0	8446.0	-5680763.0
16	14	53	57	288	25.0	743905.0	8684.0	-5679949.0
16	14	53	57	359	26.0	605949.0	8534.0	-5679555.0
16	14	53	57	359	27.0	291413.0	8781.0	-5680851.0
16	14	53	57	360	28.0	-145831.0	10015.0	-5680750.0
16	14	53	57	360	29.0	-638192.0	10099.0	-5679894.0
16	14	53	57	360	30.0	-1064467.0	10016.0	-5679377.0
16	14	53	57	360	31.0	-1408737.0	10324.0	-5680619.0
16	14	53	57	361	32.0	-1585761.0	10364.0	-5680607.0
16	14	53	57	361	33.0	-1455256.0	10254.0	-5679821.0
16	14	53	57	361	34.0	-1181507.0	10542.0	-5679512.0
16	14	53	57	362	35.0	-991096.0	10414.0	-5680536.0
16	14	53	57	362	36.0	-788224.0	10184.0	-5680153.0
16	14	53	57	362	37.0	-471529.0	10197.0	-5679451.0
16	14	53	57	362	38.0	-81982.0	10601.0	-5678808.0
16	14	53	57	363	39.0	295343.0	10929.0	-5679900.0
16	14	53	57	363	40.0	552571.0	10922.0	-5680289.0
16	14	53	57	363	42.0	417378.0	10403.0	-5679184.0
16	14	53	57	363	43.0	266328.0	10101.0	-5680054.0
16	14	53	57	364	44.0	149602.0	8769.0	-5679618.0
16	14	53	57	364	45.0	13214.0	8674.0	-5679302.0
16	14	53	57	364	46.0	-124019.0	8624.0	-5680574.0
16	14	53	57	364	47.0	-202154.0	8554.0	-5680373.0
16	14	53	57	365	48.0	-170989.0	8867.0	-5679577.0
16	14	53	57	365	49.0	-74305.0	9283.0	-5678988.0
16	14	53	57	365	50.0	29276.0	9515.0	-5679933.0
16	14	53	57	366	51.0	99041.0	10243.0	-5680345.0
16	14	53	57	366	52.0	152775.0	10301.0	-5679511.0
16	14	53	57	366	53.0	172678.0	10263.0	-5679035.0
16	14	53	57	366	54.0	169025.0	10253.0	-5680136.0
16	14	53	57	367	55.0	162305.0	10226.0	-5680301.0
16	14	53	57	367	56.0	178556.0	10189.0	-5679456.0
16	14	53	57	367	57.0	220483.0	10424.0	-5678845.0
16	14	53	57	368	58.0	264477.0	10438.0	-5679569.0
16	14	53	57	368	59.0	303996.0	10126.0	-5680070.0
16	14	53	57	369	60.0	306605.0	10209.0	-5679261.0
16	14	53	57	370	61.0	290760.0	10694.0	-5678835.0
16	14	53	57	370	62.0	266873.0	10641.0	-5679960.0
16	14	53	57	371	63.0	242838.0	10397.0	-5679997.0
16	14	53	57	371	65.0	190010.0	9634.0	-5678937.0
16	14	53	57	371	66.0	168229.0	8674.0	-5680002.0
16	14	53	57	372	67.0	148294.0	8419.0	-5679674.0
16	14	53	57	372	68.0	114401.0	8689.0	-5678832.0
16	14	53	57	372	69.0	91357.0	8681.0	-5678343.0
16	14	53	57	373	70.0	69964.0	8718.0	-5679573.0
16	14	53	57	451	71.0	67342.0	8238.0	-5679782.0
16	14	53	57	452	72.0	51646.0	8015.0	-5678939.0
16	14	53	57	452	73.0	44677.0	9243.0	-5678628.0
16	14	53	57	452	74.0	43496.0	9099.0	-5679947.0
16	14	53	57	453	75.0	66864.0	9471.0	-5679800.0
16	14	53	57	453	76.0	110853.0	9316.0	-5678972.0
16	14	53	57	453	77.0	168498.0	9689.0	-5678542.0
16	14	53	57	454	78.0	228851.0	9414.0	-5679797.0
16	14	53	57	454	79.0	280119.0	9091.0	-5679830.0
16	14	53	57	454	80.0	311929.0	9283.0	-5679016.0
16	14	53	57	454	81.0	306570.0	9541.0	-5678763.0
16	14	53	57	455	82.0	285476.0	9292.0	-5680191.0
16	14	53	57	455	83.0	251459.0	8769.0	-5679962.0
16	14	53	57	455	84.0	204283.0	8359.0	-5679197.0
16	14	53	57	456	85.0	154531.0	8726.0	-5678739.0
16	14	53	57	456	87.0	121736.0	8123.0	-5679737.0
16	14	53	57	456	88.0	131851.0	7691.0	-5678980.0
16	14	53	57	456	89.0	123677.0	7086.0	-5678414.0
16	14	53	57	457	90.0	106631.0	7496.0	-5679782.0
16	14	53	57	457	91.0	87814.0	7357.0	-5679944.0
16	14	53	57	457	92.0	70770.0	7158.0	-5679193.0
16	14	53	57	457	93.0	50666.0	7508.0	-5679272.0
16	14	53	57	458	94.0	37455.0	7589.0	-5680455.0
16	14	53	57	458	95.0	35786.0	7939.0	-5679891.0
16	14	53	57	458	96.0	47536.0	9323.0	-5679181.0
16	14	53	57	459	97.0	66941.0	10196.0	-5678887.0
16	14	53	57	459	98.0	82081.0	10479.0	-5679796.0
16	14	53	57	459	99.0	99785.0	10818.0	-5679272.0
16	14	53	57	460	100.0	121760.0	10834.0	-5678610.0
16	14	53	57	460	101.0	134199.0	11254.0	-5679394.0
16	14	53	57	460	102.0	125141.0	11541.0	-5680157.0
16	14	53	57	460	103.0	103305.0	12369.0	-5679363.0
16	14	53	57	461	104.0	75488.0	12676.0	-5678856.0
16	14	53	57	461	105.0	43490.0	13374.0	-5679890.0
16	14	53	57	461	106.0	5508.0	14189.0	-5680047.0
16	14	53	57	462	107.0	-40316.0	15116.0	-5679229.0
16	14	53	57	462	108.0	-82130.0	15764.0	-5678751.0
16	14	53	57	462	110.0	-114654.0	18250.0	-5680218.0
16	14	53	57	462	111.0	-114379.0	18306.0	-5679376.0
16	14	53	57	463	112.0	-113493.0	19108.0	-5678964.0
16	14	53	57	463	113.0	-98844.0	20633.0	-5680229.0
16	14	53	57	463	114.0	-88506.0	22316.0	-5680312.0
16	14	53	57	464	115.0	-76669.0	24528.0	-5679425.0
16	14	53	57	534	116.0	-71764.0	26608.0	-5678758.0
16	14	53	57	535	117.0	-91109.0	29233.0	-5679379.0
16	14	53	57	535	118.0	-132818.0	32500.0	-5680237.0
16	14	53	57	535	119.0	-172285.0	34362.0	-5679482.0
16	14	53	57	535	120.0	-199925.0	36139.0	-5678757.0
16	14	53	57	536	121.0	-229329.0	38196.0	-5679067.0
16	14	53	57	536	122.0	-242564.0	40093.0	-5680033.0
16	14	53	57	536	123.0	-245313.0	41833.0	-5679329.0
16	14	53	57	536	124.0	-236083.0	43886.0	-5678804.0
16	14	53	57	537	125.0	-221522.0	45674.0	-5680039.0
16	14	53	57	537	126.0	-210859.0	46450.0	-5680442.0
16	14	53	57	537	127.0	-197760.0	47533.0	-5679620.0
16	14	53	57	537	128.0	-190653.0	48626.0	-5678897.0
16	14	53	57	538	129.0	-170846.0	49803.0	-5679224.0
16	14	53	57	538	130.0	-141676.0	50803.0	-5680200.0
16	14	53	57	538	132.0	-75502.0	51514.0	-5678821.0
16	14	53	57	539	133.0	-44104.0	51087.0	-5679659.0
16	14	53	57	539	134.0	-9356.0	49984.0	-5680351.0
16	14	53	57	540	135.0	27220.0	50288.0	-5679616.0
16	14	53	57	540	136.0	52827.0	50710.0	-5678819.0
16	14	53	57	540	137.0	57398.0	51795.0	-5679246.0
16	14	53	57	541	138.0	55149.0	52380.0	-5680176.0
16	14	53	57	541	139.0	62385.0	51688.0	-5679569.0
16	14	53	57	541	140.0	98161.0	51359.0	-5678830.0
16	14	53	57	541	141.0	146679.0	50862.0	-5679590.0
16	14	53	57	542	155.0	-1372931.0	34912.0	-5679111.0
16	14	53	57	542	156.0	-631767.0	32798.0	-5678407.0
16	14	53	57	542	157.0	516656.0	31093.0	-5679166.0
16	14	53	57	543	158.0	1436615.0	29638.0	-5679866.0
16	14	53	57	543	159.0	1783278.0	28259.0	-5679247.0
16	14	53	57	543	160.0	1612585.0	26638.0	-5678507.0
16	14	53	57	621	161.0	1046467.0	24719.0	-5679510.0
16	14	53	57	621	162.0	344792.0	23214.0	-5679968.0
16	14	53	57	622	163.0	-160517.0	22783.0	-5679162.0
16	14	53	57	622	164.0	-389388.0	21186.0	-5678465.0
16	14	53	57	622	165.0	-471466.0	19504.0	-5679636.0
16	14	53	57	623	166.0	-468018.0	18438.0	-5680078.0
16	14	53	57	623	167.0	-392005.0	17093.0	-5679373.0
16	14	53	57	623	168.0	-283431.0	15904.0	-5678619.0
16	14	53	57	624	169.0	-178084.0	14341.0	-5678817.0
16	14	53	57	624	170.0	-96996.0	12377.0	-5680073.0
16	14	53	57	624	171.0	-43163.0	10396.0	-5679607.0
16	14	53	57	624	172.0	-25687.0	9098.0	-5678892.0
16	14	53	57	625	173.0	-53310.0	7000.0	-5679646.0
16	14	53	57	625	174.0	-131106.0	5032.0	-5680034.0
16	14	53	57	625	175.0	-229010.0	4066.0	-5679333.0
16	14	53	57	626	177.0	-343688.0	1866.0	-5680439.0
16	14	53	57	626	178.0	-339782.0	-370.0	-5680061.0
16	14	53	57	626	179.0	-325631.0	-2641.0	-5679271.0
16	14	53	57	626	180.0	-283945.0	-3421.0	-5678639.0
16	14	53	57	627	181.0	-175185.0	-4399.0	-5679744.0
16	14	53	57	627	182.0	-135726.0	-5332.0	-5679987.0
16	14	53	57	627	183.0	-200072.0	-6747.0	-5679206.0
16	14	53	57	627	184.0	-258703.0	-7919.0	-5679097.0
16	14	53	57	628	185.0	-250862.0	-8297.0	-5680359.0
16	14	53	57	628	186.0	-223138.0	-8375.0	-5679962.0
16	14	53	57	628	187.0	-201957.0	-9160.0	-5679210.0
16	14	53	57	629	188.0	-177514.0	-10233.0	-5678782.0
16	14	53	57	629	189.0	-135730.0	-10784.0	-5680091.0
16	14	53	57	629	190.0	-65537.0	-11789.0	-5680162.0
16	14	53	57	630	191.0	13633.0	-13053.0	-5679335.0
16	14	53	57	630	192.0	87630.0	-13641.0	-5679124.0
16	14	53	57	630	193.0	152973.0	-13994.0	-5680216.0
16	14	53	57	630	194.0	197677.0	-15784.0	-5679911.0
16	14	53	57	631	195.0	230704.0	-16859.0	-5679043.0
16	14	53	57	631	196.0	244753.0	-17216.0	-5678696.0
16	14	53	57	631	197.0	260041.0	-17859.0	-5679846.0
16	14	53	57	632	198.0	290038.0	-18579.0	-5679759.0
16	14	53	57	704	200.0	348087.0	-20446.0	-5678734.0
16	14	53	57	704	201.0	362806.0	-22106.0	-5680175.0
16	14	53	57	705	202.0	375631.0	-22750.0	-5680067.0
16	14	53	57	705	203.0	376939.0	-23482.0	-5679281.0
16	14	53	57	706	204.0	368255.0	-23886.0	-5680002.0
16	14	53	57	706	205.0	363304.0	-24361.0	-5680714.0
16	14	53	57	706	206.0	361586.0	-24799.0	-5680048.0
16	14	53	57	707	207.0	376837.0	-24856.0	-5679210.0
16	14	53	57	707	208.0	396939.0	-24105.0	-5679312.0
16	14	53	57	707	209.0	415415.0	-24162.0	-5680637.0
16	14	53	57	708	210.0	415990.0	-25016.0	-5680231.0
16	14	53	57	708	211.0	393959.0	-25206.0	-5679377.0
16	14	53	57	708	212.0	355356.0	-25464.0	-5679408.0
16	14	53	57	709	213.0	302469.0	-26456.0	-5680724.0
16	14	53	57	709	214.0	255656.0	-26537.0	-5680262.0
16	14	53	57	709	215.0	212514.0	-26637.0	-5679472.0
16	14	53	57	710	216.0	185185.0	-26606.0	-5679664.0
16	14	53	57	710	217.0	169099.0	-26302.0	-5680756.0
16	14	53	57	710	218.0	149928.0	-26517.0	-5680163.0
16	14	53	57	710	219.0	122647.0	-26688.0	-5679417.0
16	14	53	57	711	220.0	82353.0	-27108.0	-5679522.0
16	14	53	57	711	222.0	30307.0	-27181.0	-5679483.0
16	14	53	57	711	223.0	18758.0	-27752.0	-5679421.0
16	14	53	57	711	224.0	-1215.0	-28123.0	-5680814.0
16	14	53	57	712	225.0	-24522.0	-27706.0	-5680451.0
16	14	53	57	712	226.0	-49390.0	-27562.0	-5679701.0
16	14	53	57	712	227.0	-70901.0	-27338.0	-5679102.0
16	14	53	57	712	228.0	-88043.0	-26393.0	-5680339.0
16	14	53	57	713	229.0	-111322.0	-25757.0	-5680736.0
16	14	53	57	713	230.0	-137560.0	-24594.0	-5679949.0
16	14	53	57	713	231.0	-174970.0	-23804.0	-5679467.0
16	14	53	57	714	232.0	-209810.0	-23363.0	-5680705.0
16	14	53	57	714	233.0	-238145.0	-23212.0	-5680941.0
16	14	53	57	714	234.0	-262761.0	-22534.0	-5680103.0
16	14	53	57	715	235.0	-274102.0	-22350.0	-5679632.0
16	14	53	57	715	236.0	-261611.0	-21683.0	-5680713.0
16	14	53	57	715	237.0	-239602.0	-21281.0	-5680891.0
16	14	53	57	716	238.0	-221787.0	-20865.0	-5680064.0
16	14	53	57	716	239.0	-212914.0	-19620.0	-5679523.0
16	14	53	57	716	240.0	-201372.0	-19051.0	-5680519.0
16	14	53	57	717	241.0	-201154.0	-18639.0	-5680823.0
16	14	53	57	791	242.0	-203216.0	-18387.0	-5679971.0
16	14	53	57	791	245.0	-188828.0	-16351.0	-5680528.0
16	14	53	57	792	246.0	-177294.0	-16371.0	-5679671.0
16	14	53	57	792	247.0	-182835.0	-15937.0	-5679150.0
16	14	53	57	793	248.0	-204480.0	-15437.0	-5680195.0
16	14	53	57	793	249.0	-232876.0	-14917.0	-5680511.0
16	14	53	57	793	250.0	-261099.0	-14223.0	-5679671.0
16	14	53	57	794	251.0	-271662.0	-13211.0	-5679399.0
16	14	53	57	794	252.0	-274076.0	-12004.0	-5680656.0
16	14	53	57	794	253.0	-261781.0	-10991.0	-5680488.0
16	14	53	57	794	254.0	-230280.0	-9934.0	-5679641.0
16	14	53	57	795	255.0	-169179.0	-9401.0	-5679579.0
16	14	53	57	795	0.0	-98238.0	-8641.0	-5680787.0
16	14	53	57	795	1.0	-44540.0	-7831.0	-5680427.0
16	14	53	57	796	2.0	-4379.0	-7033.0	-5679612.0
16	14	53	57	796	3.0	17006.0	-6133.0	-5679131.0
16	14	53	57	796	4.0	24456.0	-5524.0	-5680376.0
16	14	53	57	796	5.0	14329.0	-4964.0	-5680376.0
16	14	53	57	797	6.0	-1008.0	-4449.0	-5679582.0
16	14	53	57	797	7.0	-15214.0	-4100.0	-5679491.0
16	14	53	57	797	8.0	-30579.0	-3466.0	-5680894.0
16	14	53	57	797	9.0	-42361.0	-3011.0	-5680514.0
16	14	53	57	798	11.0	-25876.0	-1947.0	-5679311.0
16	14	53	57	799	12.0	-6037.0	-2055.0	-5680439.0
16	14	53	57	799	13.0	17303.0	-2519.0	-5680380.0
16	14	53	57	881	14.0	44783.0	-1848.0	-5679622.0
16	14	53	57	881	15.0	49628.0	-1304.0	-5679732.0
16	14	53	57	882	16.0	26228.0	134.0	-5680321.0
16	14	53	57	882	17.0	-904.0	723.0	-5679648.0
16	14	53	57	882	18.0	-21147.0	924.0	-5679579.0
16	14	53	57	882	19.0	-33042.0	736.0	-5681015.0
16	14	53	57	883	20.0	-42802.0	1566.0	-5680663.0
16	14	53	57	883	21.0	-48647.0	2541.0	-5679882.0
16	14	53	57	883	22.0	-48771.0	2776.0	-5679142.0
16	14	53	57	884	33.0	17496.0	3636.0	-5680066.0
16	14	53	57	884	34.0	37043.0	3044.0	-5679482.0
16	14	53	57	884	35.0	60317.0	1992.0	-5680449.0
16	14	53	57	885	36.0	89597.0	2082.0	-5680941.0
16	14	53	57	885	37.0	127421.0	2119.0	-5680124.0
16	14	53	57	886	38.0	170037.0	2094.0	-5679640.0
16	14	53	57	886	39.0	209355.0	1984.0	-5680729.0
16	14	53	57	887	40.0	241687.0	1874.0	-5680946.0
16	14	53	57	887	41.0	253984.0	2111.0	-5680131.0
16	14	53	57	888	42.0	235754.0	3152.0	-5679551.0
16	14	53	57	888	43.0	199681.0	3255.0	-5680501.0
16	14	53	57	889	44.0	156642.0	2963.0	-5680909.0
16	14	53	57	889	45.0	113395.0	2913.0	-5680083.0
16	14	53	57	889	46.0	81964.0	3178.0	-5679786.0
16	14	53	57	890	47.0	69838.0	2843.0	-5680966.0
16	14	53	57	890	48.0	61693.0	2535.0	-5680769.0
16	14	53	57	890	49.0	51556.0	2489.0	-5679946.0
16	14	53	57	891	50.0	35218.0	2328.0	-5679336.0
16	14	53	57	891	51.0	12838.0	1997.0	-5680362.0
16	14	53	57	891	52.0	-7846.0	1617.0	-5680766.0
16	14	53	57	892	53.0	-23190.0	1900.0	-5679989.0
16	14	53	57	892	54.0	-30470.0	1838.0	-5679319.0
16	14	53	57	892	56.0	-34963.0	1008.0	-5680657.0
16	14	53	57	893	57.0	-25334.0	-86.0	-5679926.0
16	14	53	57	893	58.0	-19003.0	-1116.0	-5679477.0
16	14	53	57	894	59.0	-15383.0	-1302.0	-5680859.0
16	14	53	57	894	60.0	-17615.0	-1340.0	-5680777.0
16	14	53	57	894	61.0	-30591.0	-1058.0	-5680029.0
16	14	53	57	895	62.0	-42892.0	-991.0	-5679322.0
16	14	53	57	895	63.0	-34364.0	-832.0	-5680371.0
16	14	53	57	895	64.0	-12139.0	178.0	-5680704.0
16	14	53	57	896	65.0	-4846.0	344.0	-5680007.0
16	14	53	57	896	66.0	-17271.0	471.0	-5679595.0
16	14	53	57	896	67.0	-33150.0	681.0	-5680459.0
16	14	53	57	897	68.0	-41562.0	-202.0	-5679980.0
16	14	53	57	897	69.0	-25047.0	21.0	-5679297.0
16	14	53	57	897	70.0	-3047.0	773.0	-5679886.0
16	14	53	57	898	71.0	21269.0	703.0	-5680687.0
16	14	53	57	898	72.0	33661.0	154.0	-5679922.0
16	14	53	57	899	73.0	33479.0	227.0	-5679256.0
16	14	53	57	899	74.0	22929.0	349.0	-5679757.0
16	14	53	57	900	75.0	11675.0	256.0	-5680742.0
16	14	53	57	900	76.0	21489.0	-186.0	-5680017.0
16	14	53	57	900	78.0	99696.0	-111.0	-5680764.0
16	14	53	57	901	79.0	169135.0	52.0	-5680817.0
16	14	53	57	972	80.0	228526.0	-1152.0	-5679952.0
16	14	53	57	972	81.0	258696.0	-1421.0	-5679332.0
16	14	53	57	973	82.0	249843.0	-1346.0	-5680210.0
16	14	53	57	973	83.0	204561.0	-822.0	-5680792.0
16	14	53	57	973	84.0	141199.0	-824.0	-5679974.0
16	14	53	57	974	85.0	78496.0	436.0	-5679327.0
16	14	53	57	974	86.0	21185.0	965.0	-5680207.0
16	14	53	57	974	87.0	-24385.0	651.0	-5680791.0
16	14	53	57	975	88.0	-60703.0	924.0	-5680015.0
16	14	53	57	975	89.0	-81958.0	949.0	-5679299.0
16	14	53	57	975	90.0	-93476.0	791.0	-5679752.0
16	14	53	57	976	91.0	-92606.0	160.0	-5680884.0
16	14	53	57	976	92.0	-96157.0	361.0	-5680221.0
16	14	53	57	976	93.0	-107209.0	501.0	-5679528.0
16	14	53	57	977	94.0	-118637.0	768.0	-5680287.0
16	14	53	57	977	101.0	-211634.0	1782.0	-5679312.0
16	14	53	57	977	102.0	-176760.0	1470.0	-5679916.0
16	14	53	57	977	103.0	-143587.0	816.0	-5680792.0
16	14	53	57	978	104.0	-125104.0	769.0	-5680172.0
16	14	53	57	978	105.0	-120067.0	1051.0	-5679424.0
16	14	53	57	978	106.0	-109560.0	958.0	-5680359.0
16	14	53	57	978	107.0	-89499.0	744.0	-5680828.0
16	14	53	57	979	108.0	-116036.0	871.0	-5680138.0
16	14	53	57	979	109.0	-171100.0	2259.0	-5679416.0
16	14	53	57	979	110.0	-201792.0	3180.0	-5680463.0
16	14	53	57	980	111.0	-193992.0	3448.0	-5680997.0
16	14	53	57	980	112.0	-167979.0	3594.0	-5680325.0
16	14	53	57	980	113.0	-133908.0	3731.0	-5679537.0
16	14	53	57	980	114.0	-99123.0	3523.0	-5680299.0
16	14	53	57	981	115.0	-67972.0	3039.0	-5681060.0
16	14	53	57	981	116.0	-52402.0	3094.0	-5680446.0
16	14	53	57	981	117.0	-49609.0	3167.0	-5679689.0
16	14	53	57	982	118.0	-57159.0	3734.0	-5680481.0
16	14	53	57	982	119.0	-78154.0	4301.0	-5681054.0
16	14	53	57	983	120.0	-111777.0	4440.0	-5680374.0
16	14	53	57	983	121.0	-146011.0	3794.0	-5679551.0
16	14	53	57	983	123.0	-155486.0	4633.0	-5680534.0
16	14	53	58	65	124.0	-135329.0	4313.0	-5680145.0
16	14	53	58	65	125.0	-119211.0	2949.0	-5679424.0
16	14	53	58	66	126.0	-112152.0	2567.0	-5679893.0
16	14	53	58	66	127.0	-101254.0	2742.0	-5679924.0
16	14	53	58	66	128.0	-96159.0	3174.0	-5679337.0
16	14	53	58	67	129.0	-88479.0	3274.0	-5680085.0
16	14	53	58	67	130.0	-71430.0	3529.0	-5680571.0
16	14	53	58	67	131.0	-30569.0	4385.0	-5679751.0
16	14	53	58	67	132.0	50197.0	5707.0	-5679019.0
16	14	53	58	68	133.0	180344.0	5734.0	-5679302.0
16	14	53	58	68	134.0	349189.0	5777.0	-5680483.0
16	14	53	58	68	135.0	517314.0	5256.0	-5679914.0
16	14	53	58	69	136.0	667884.0	5276.0	-5679277.0
16	14	53	58	69	137.0	792257.0	5597.0	-5680257.0
16	14	53	58	69	138.0	852894.0	5382.0	-5680852.0
16	14	53	58	69	139.0	671978.0	5528.0	-5680077.0
16	14	53	58	70	140.0	200726.0	6259.0	-5679286.0
16	14	53	58	70	141.0	-234820.0	6456.0	-5679667.0
16	14	53	58	70	142.0	-622741.0	6500.0	-5680639.0
16	14	53	58	70	143.0	-933692.0	6778.0	-5679966.0
16	14	53	58	71	144.0	-1087577.0	6883.0	-5679164.0
16	14	53	58	71	146.0	-402779.0	6909.0	-5680730.0
16	14	53	58	71	147.0	310346.0	6034.0	-5680097.0
16	14	53	58	72	148.0	917762.0	5201.0	-5679336.0
16	14	53	58	72	149.0	1252436.0	5208.0	-5679927.0
16	14	53	58	72	150.0	1331234.0	6184.0	-5680730.0
16	14	53	58	73	151.0	1241701.0	6373.0	-5680125.0
16	14	53	58	73	152.0	1124589.0	6067.0	-5679303.0
16	14	53	58	73	153.0	1060223.0	6369.0	-5679482.0
16	14	53	58	74	154.0	960308.0	7291.0	-5680549.0
16	14	53	58	74	155.0	729054.0	8349.0	-5680037.0
16	14	53	58	74	156.0	379075.0	8646.0	-5679299.0
16	14	53	58	74	157.0	-150648.0	8043.0	-5680321.0
16	14	53	58	75	158.0	-765700.0	7881.0	-5680631.0
16	14	53	58	75	159.0	-1281364.0	7802.0	-5679871.0
16	14	53	58	75	160.0	-1613939.0	8023.0	-5679058.0
16	14	53	58	76	161.0	-1678889.0	8123.0	-5679841.0
16	14	53	58	76	162.0	-1385912.0	7765.0	-5680653.0
16	14	53	58	76	163.0	-848818.0	7838.0	-5680017.0
16	14	53	58	77	164.0	-257066.0	8175.0	-5679223.0
16	14	53	58	77	165.0	238318.0	8411.0	-5679851.0
16	14	53	58	78	166.0	494735.0	8413.0	-5680699.0
16	14	53	58	78	168.0	206884.0	8566.0	-5679259.0
16	14	53	58	78	169.0	-42925.0	8533.0	-5679917.0
16	14	53	58	79	170.0	-238015.0	7822.0	-5680922.0
16	14	53	58	79	171.0	-374323.0	8064.0	-5680302.0
16	14	53	58	79	172.0	-452752.0	7728.0	-5679451.0
16	14	53	58	80	173.0	-458366.0	7630.0	-5679709.0
16	14	53	58	80	174.0	-389091.0	7641.0	-5680739.0
16	14	53	58	163	175.0	-283375.0	7871.0	-5680161.0
16	14	53	58	163	176.0	-172971.0	8591.0	-5679439.0
16	14	53	58	164	177.0	-72739.0	9669.0	-5679889.0
16	14	53	58	164	178.0	9851.0	9171.0	-5680011.0
16	14	53	58	164	179.0	73807.0	9015.0	-5679275.0
16	14	53	58	164	180.0	133147.0	8390.0	-5678872.0
16	14	53	58	165	181.0	205119.0	8996.0	-5680046.0
16	14	53	58	165	182.0	284456.0	8886.0	-5679878.0
16	14	53	58	165	183.0	361234.0	9228.0	-5679075.0
16	14	53	58	165	184.0	406941.0	9656.0	-5678891.0
16	14	53	58	166	185.0	412518.0	9644.0	-5680249.0
16	14	53	58	166	186.0	386614.0	9576.0	-5679969.0
16	14	53	58	166	187.0	346417.0	9161.0	-5679214.0
16	14	53	58	167	188.0	301023.0	9374.0	-5679496.0
16	14	53	58	167	189.0	251609.0	9471.0	-5680593.0
16	14	53	58	167	191.0	242042.0	9958.0	-5679203.0
16	14	53	58	167	192.0	274941.0	9264.0	-5679391.0
16	14	53	58	167	193.0	254265.0	8293.0	-5680611.0
16	14	53	58	168	194.0	206233.0	8214.0	-5680101.0
16	14	53	58	168	195.0	151418.0	8141.0	-5679274.0
16	14	53	58	168	196.0	92080.0	8091.0	-5679471.0
16	14	53	58	168	197.0	48218.0	8163.0	-5680667.0
16	14	53	58	169	198.0	34539.0	8329.0	-5680155.0
16	14	53	58	169	199.0	51688.0	9606.0	-5679286.0
16	14	53	58	169	200.0	95963.0	10681.0	-5679117.0
16	14	53	58	169	201.0	157879.0	10642.0	-5680380.0
16	14	53	58	170	202.0	223469.0	9962.0	-5680163.0
16	14	53	58	170	203.0	264229.0	9424.0	-5679362.0
16	14	53	58	170	204.0	319600.0	8934.0	-5679436.0
16	14	53	58	171	205.0	325713.0	8745.0	-5680628.0
16	14	53	58	171	206.0	225508.0	8468.0	-5680197.0
16	14	53	58	171	207.0	119741.0	8637.0	-5679333.0
16	14	53	58	171	208.0	58430.0	8620.0	-5679423.0
16	14	53	58	172	209.0	6343.0	8651.0	-5680632.0
16	14	53	58	172	210.0	-49819.0	8994.0	-5680221.0
16	14	53	58	172	211.0	-61986.0	8786.0	-5679352.0
16	14	53	58	173	213.0	-29767.0	9008.0	-5680169.0
16	14	53	58	173	214.0	-23804.0	8053.0	-5680439.0
16	14	53	58	173	215.0	-25513.0	7199.0	-5679601.0
16	14	53	58	174	216.0	-66464.0	7084.0	-5679571.0
16	14	53	58	174	217.0	-113130.0	6777.0	-5680872.0
16	14	53	58	174	218.0	-129236.0	6713.0	-5680525.0
16	14	53	58	175	219.0	-128159.0	6806.0	-5679732.0
16	14	53	58	280	220.0	-122670.0	7531.0	-5679249.0
16	14	53	58	280	221.0	-131499.0	7992.0	-5680327.0
16	14	53	58	280	222.0	-148789.0	8958.0	-5680498.0
16	14	53	58	281	223.0	-166202.0	9670.0	-5679673.0
16	14	53	58	281	224.0	-176652.0	9364.0	-5679512.0
16	14	53	58	281	225.0	-176169.0	9477.0	-5680847.0
16	14	53	58	281	226.0	-177605.0	9935.0	-5680562.0
16	14	53	58	282	227.0	-195157.0	9529.0	-5679676.0
16	14	53	58	282	228.0	-222781.0	9655.0	-5679191.0
16	14	53	58	282	229.0	-240305.0	9964.0	-5680487.0
16	14	53	58	283	230.0	-245005.0	10449.0	-5680534.0
16	14	53	58	283	231.0	-242846.0	11416.0	-5679768.0
16	14	53	58	283	232.0	-239326.0	11810.0	-5679127.0
16	14	53	58	283	233.0	-236897.0	12372.0	-5680152.0
16	14	53	58	284	234.0	-241719.0	13049.0	-5680529.0
16	14	53	58	284	236.0	-287146.0	14253.0	-5679606.0
16	14	53	58	284	237.0	-309752.0	13688.0	-5680922.0
16	14	53	58	284	238.0	-324519.0	14404.0	-5680585.0
16	14	53	58	285	239.0	-339847.0	16879.0	-5679844.0
16	14	53	58	285	240.0	-348667.0	18095.0	-5679174.0
16	14	53	58	285	2.0	79076.0	46708.0	-5679702.0
16	14	53	58	286	3.0	95068.0	46529.0	-5679044.0
16	14	53	58	286	4.0	113069.0	45998.0	-5679766.0
16	14	53	58	286	5.0	125818.0	46518.0	-5680732.0
16	14	53	58	286	6.0	128485.0	46973.0	-5679944.0
16	14	53	58	287	7.0	131876.0	47044.0	-5679253.0
16	14	53	58	393	8.0	140603.0	47238.0	-5679766.0
16	14	53	58	393	9.0	147310.0	47389.0	-5680752.0
16	14	53	58	393	10.0	151588.0	48335.0	-5680044.0
16	14	53	58	394	11.0	149311.0	48390.0	-5679604.0
16	14	53	58	394	12.0	136299.0	47895.0	-5680797.0
16	14	53	58	394	13.0	121799.0	47469.0	-5681012.0
16	14	53	58	395	14.0	96184.0	47281.0	-5680185.0
16	14	53	58	395	15.0	63584.0	47084.0	-5679520.0
16	14	53	58	395	16.0	36124.0	45938.0	-5680225.0
16	14	53	58	395	17.0	1623.0	44756.0	-5680859.0
16	14	53	58	396	18.0	-43264.0	43827.0	-5680085.0
16	14	53	58	396	19.0	-93882.0	43388.0	-5679366.0
16	14	53	58	396	20.0	-176384.0	42119.0	-5680141.0
16	14	53	58	396	21.0	-364024.0	40656.0	-5680799.0
16	14	53	58	397	22.0	-749677.0	39718.0	-5680034.0
16	14	53	58	397	25.0	-1527286.0	36401.0	-5680527.0
16	14	53	58	397	26.0	-687513.0	34317.0	-5680049.0
16	14	53	58	398	27.0	520262.0	32660.0	-5679481.0
16	14	53	58	398	28.0	1428603.0	31477.0	-5680508.0
16	14	53	58	398	29.0	1716133.0	29871.0	-5681054.0
16	14	53	58	399	30.0	1466014.0	28681.0	-5680316.0
16	14	53	58	399	31.0	842968.0	27346.0	-5679618.0
16	14	53	58	399	32.0	200378.0	26338.0	-5680679.0
16	14	53	58	399	33.0	-164032.0	25331.0	-5680854.0
16	14	53	58	400	34.0	-250587.0	23753.0	-5680108.0
16	14	53	58	400	35.0	-222944.0	23215.0	-5679238.0
16	14	53	58	400	36.0	-159060.0	21823.0	-5679411.0
16	14	53	58	401	37.0	-62215.0	20644.0	-5680449.0
16	14	53	58	401	38.0	38967.0	18958.0	-5679983.0
16	14	53	58	401	39.0	101043.0	17418.0	-5679251.0
16	14	53	58	401	40.0	119608.0	15844.0	-5680253.0
16	14	53	58	402	41.0	106711.0	14631.0	-5680749.0
16	14	53	58	402	42.0	71169.0	13068.0	-5680057.0
16	14	53	58	402	43.0	4640.0	11398.0	-5679275.0
16	14	53	58	403	44.0	-96806.0	10304.0	-5680122.0
16	14	53	58	403	45.0	-216016.0	9166.0	-5681024.0
16	14	53	58	403	47.0	-447118.0	6277.0	-5679611.0
16	14	53	58	404	48.0	-536607.0	3869.0	-5680289.0
16	14	53	58	404	49.0	-564804.0	1386.0	-5680984.0
16	14	53	58	404	50.0	-525727.0	-168.0	-5680310.0
16	14	53	58	405	51.0	-431021.0	-965.0	-5679527.0
16	14	53	58	405	52.0	-311676.0	-2435.0	-5679941.0
16	14	53	58	405	53.0	-195317.0	-3473.0	-5680087.0
16	14	53	58	406	54.0	-100444.0	-4246.0	-5679417.0
16	14	53	58	406	55.0	-34366.0	-4299.0	-5678910.0
16	14	53	58	406	56.0	14379.0	-4731.0	-5680092.0
16	14	53	58	407	57.0	63158.0	-5927.0	-5680044.0
16	14	53	58	407	58.0	112599.0	-6837.0	-5679319.0
16	14	53	58	407	59.0	159386.0	-7965.0	-5679779.0
16	14	53	58	408	60.0	205704.0	-9212.0	-5680952.0
16	14	53	58	408	61.0	271576.0	-9994.0	-5680291.0
16	14	53	58	408	62.0	358891.0	-11327.0	-5679556.0
16	14	53	58	409	63.0	452306.0	-12249.0	-5679707.0
16	14	53	58	409	64.0	535349.0	-12890.0	-5680976.0
16	14	53	58	409	65.0	598454.0	-13610.0	-5680441.0
16	14	53	58	410	66.0	638616.0	-14424.0	-5679657.0
16	14	53	58	410	67.0	662038.0	-15671.0	-5679348.0
16	14	53	58	410	69.0	693017.0	-16601.0	-5680612.0
16	14	53	58	411	70.0	712806.0	-18186.0	-5679786.0
16	14	53	58	411	71.0	735519.0	-20396.0	-5679607.0
16	14	53	58	411	72.0	747169.0	-20882.0	-5680906.0
16	14	53	58	412	73.0	744398.0	-21334.0	-5680611.0
16	14	53	58	412	74.0	713854.0	-21803.0	-5679812.0
16	14	53	58	413	75.0	646493.0	-22054.0	-5679694.0
16	14	53	58	507	76.0	554441.0	-22358.0	-5680994.0
16	14	53	58	507	77.0	441338.0	-22472.0	-5680720.0
16	14	53	58	508	78.0	324004.0	-22207.0	-5679884.0
16	14	53	58	508	79.0	200944.0	-22670.0	-5679931.0
16	14	53	58	508	80.0	94587.0	-23090.0	-5681078.0
16	14	53	58	508	81.0	6937.0	-23071.0	-5680639.0
16	14	53	58	509	82.0	-58671.0	-23361.0	-5679804.0
16	14	53	58	509	83.0	-99137.0	-24048.0	-5679645.0
16	14	53	58	509	84.0	-123554.0	-24125.0	-5680953.0
16	14	53	58	509	85.0	-141727.0	-24294.0	-5680719.0
16	14	53	58	510	86.0	-157321.0	-24711.0	-5679887.0
16	14	53	58	510	87.0	-173327.0	-24440.0	-5679670.0
16	14	53	58	510	88.0	-191331.0	-24749.0	-5681062.0
16	14	53	58	510	89.0	-215828.0	-24940.0	-5680955.0
16	14	53	58	510	90.0	-247794.0	-24732.0	-5680136.0
16	14	53	58	511	92.0	-314657.0	-24795.0	-5681394.0
16	14	53	58	511	93.0	-331506.0	-25426.0	-5680914.0
16	14	53	58	511	94.0	-333135.0	-25741.0	-5680079.0
16	14	53	58	511	95.0	-330556.0	-25410.0	-5679937.0
16	14	53	58	512	96.0	-331156.0	-24856.0	-5681212.0
16	14	53	58	512	97.0	-322061.0	-24523.0	-5680959.0
16	14	53	58	512	98.0	-293939.0	-24700.0	-5680111.0
16	14	53	58	512	99.0	-250839.0	-24164.0	-5680044.0
16	14	53	58	513	100.0	-204663.0	-23067.0	-5681379.0
16	14	53	58	513	101.0	-157816.0	-22291.0	-5681057.0
16	14	53	58	513	102.0	-107343.0	-21869.0	-5680282.0
16	14	53	58	513	103.0	-52549.0	-21105.0	-5679948.0
16	14	53	58	514	104.0	-14078.0	-20617.0	-5680987.0
16	14	53	58	514	105.0	15743.0	-20054.0	-5680696.0
16	14	53	58	514	106.0	42429.0	-19789.0	-5679932.0
16	14	53	58	514	107.0	65796.0	-19545.0	-5680045.0
16	14	53	58	514	108.0	77731.0	-19356.0	-5681119.0
16	14	53	58	515	109.0	68098.0	-18977.0	-5680564.0
16	14	53	58	515	110.0	40843.0	-18302.0	-5679791.0
16	14	53	58	515	111.0	-2241.0	-18096.0	-5680008.0
16	14	53	58	515	112.0	-43521.0	-18087.0	-5680517.0
16	14	53	58	515	114.0	-106954.0	-16265.0	-5679151.0
16	14	53	58	516	115.0	-135095.0	-16049.0	-5680080.0
16	14	53	58	516	116.0	-166758.0	-16356.0	-5680649.0
16	14	53	58	516	117.0	-189271.0	-15375.0	-5679898.0
16	14	53	58	516	118.0	-205140.0	-14876.0	-5679529.0
16	14	53	58	516	119.0	-206909.0	-14360.0	-5680751.0
16	14	53	58	517	120.0	-203630.0	-13664.0	-5680638.0
16	14	53	58	628	121.0	-191274.0	-12870.0	-5679835.0
16	14	53	58	629	122.0	-168978.0	-12141.0	-5679504.0
16	14	53	58	629	123.0	-142432.0	-10476.0	-5680869.0
16	14	53	58	629	124.0	-110264.0	-9357.0	-5680801.0
16	14	53	58	629	125.0	-79226.0	-8644.0	-5679982.0
16	14	53	58	630	126.0	-49685.0	-7882.0	-5679553.0
16	14	53	58	630	127.0	-29414.0	-7001.0	-5680884.0
16	14	53	58	630	128.0	-8929.0	-6735.0	-5680977.0
16	14	53	58	630	129.0	24588.0	-7159.0	-5680162.0
16	14	53	58	630	130.0	74108.0	-6407.0	-5680168.0
16	14	53	58	631	131.0	122120.0	-5429.0	-5681152.0
16	14	53	58	631	132.0	161905.0	-4754.0	-5680692.0
16	14	53	58	748	133.0	193783.0	-4356.0	-5679861.0
16	14	53	58	748	134.0	214082.0	-3966.0	-5679329.0
16	14	53	58	749	137.0	274396.0	-1866.0	-5679547.0
16	14	53	58	749	138.0	241163.0	-2572.0	-5679298.0
16	14	53	58	749	139.0	224826.0	-2935.0	-5680494.0
16	14	53	58	750	140.0	292357.0	-2529.0	-5680318.0
16	14	53	58	750	141.0	390355.0	-1807.0	-5679481.0
16	14	53	58	750	142.0	455676.0	-102.0	-5679662.0
16	14	53	58	750	143.0	484229.0	-69.0	-5680720.0
16	14	53	58	750	144.0	495941.0	703.0	-5680233.0
16	14	53	58	751	145.0	494828.0	1236.0	-5679415.0
16	14	53	58	751	146.0	465079.0	1659.0	-5679172.0
16	14	53	58	751	147.0	397178.0	1963.0	-5680496.0
16	14	53	58	751	160.0	-102358.0	3406.0	-5680194.0
16	14	53	58	752	182.0	-158341.0	2625.0	-5680124.0
16	14	53	58	752	204.0	-72469.0	2041.0	-5679467.0
16	14	53	58	752	205.0	-52052.0	1496.0	-5678966.0
16	14	53	58	752	206.0	-28804.0	313.0	-5680144.0
16	14	53	58	753	207.0	-9937.0	312.0	-5680309.0
16	14	53	58	753	208.0	22742.0	421.0	-5679520.0
16	14	53	58	753	209.0	55385.0	218.0	-5679226.0
16	14	53	58	753	210.0	63158.0	34.0	-5680514.0
16	14	53	58	754	211.0	58074.0	191.0	-5680244.0
16	14	53	58	754	212.0	53953.0	671.0	-5679492.0
16	14	53	58	754	213.0	33986.0	2353.0	-5678829.0
16	14	53	58	754	214.0	3881.0	2834.0	-5679874.0
16	14	53	58	755	215.0	-343.0	2371.0	-5680451.0
16	14	53	58	755	216.0	28306.0	3007.0	-5679741.0
16	14	53	58	755	217.0	75121.0	3223.0	-5679117.0
16	14	53	58	755	218.0	118988.0	2898.0	-5680280.0
16	14	53	58	756	219.0	164112.0	2399.0	-5680575.0
16	14	53	58	756	220.0	187281.0	2200.0	-5679857.0
16	14	53	58	756	221.0	141041.0	2711.0	-5679422.0
16	14	53	58	756	222.0	66143.0	3020.0	-5680786.0
16	14	53	58	757	223.0	6378.0	2709.0	-5680676.0
16	14	53	58	757	224.0	-45485.0	2667.0	-5679927.0
16	14	53	58	757	225.0	-78654.0	2812.0	-5679166.0
16	14	53	58	757	227.0	-157132.0	2982.0	-5680342.0
16	14	53	58	758	228.0	-203040.0	1793.0	-5679641.0
16	14	53	58	758	229.0	-215354.0	1303.0	-5679083.0
16	14	53	58	758	230.0	-197782.0	1141.0	-5679946.0
16	14	53	58	758	231.0	-203371.0	1371.0	-5679676.0
16	14	53	58	759	232.0	-232209.0	1640.0	-5678975.0
16	14	53	58	759	233.0	-259694.0	1876.0	-5679070.0
16	14	53	58	759	234.0	-270152.0	2597.0	-5680267.0
16	14	53	58	759	235.0	-229969.0	3842.0	-5679684.0
16	14	53	58	760	236.0	-147174.0	3804.0	-5679006.0
16	14	53	58	760	237.0	-81222.0	3901.0	-5679421.0
16	14	53	58	760	238.0	-48107.0	4476.0	-5680288.0
16	14	53	58	760	239.0	-28547.0	4696.0	-5679531.0
16	14	53	58	761	240.0	5306.0	4373.0	-5679032.0
16	14	53	58	761	241.0	58603.0	3760.0	-5680067.0
16	14	53	58	761	242.0	100182.0	3666.0	-5680223.0
16	14	53	58	761	243.0	110706.0	4038.0	-5679356.0
16	14	53	58	762	244.0	96640.0	3710.0	-5678660.0
16	14	53	58	762	245.0	81800.0	3684.0	-5679125.0
16	14	53	58	762	246.0	85916.0	4179.0	-5679989.0
16	14	53	58	763	247.0	87391.0	3984.0	-5679245.0
16	14	53	58	763	249.0	20038.0	4522.0	-5679342.0
16	14	53	58	763	250.0	-28960.0	4048.0	-5679814.0
16	14	53	58	763	251.0	-60566.0	3089.0	-5679016.0
16	14	53	58	764	252.0	-69092.0	3042.0	-5678403.0
16	14	53	58	764	253.0	-58267.0	3354.0	-5679544.0
16	14	53	58	764	254.0	-61043.0	3811.0	-5680072.0
16	14	53	58	764	255.0	-89064.0	4449.0	-5679301.0
16	14	53	58	870	0.0	-129500.0	4464.0	-5678689.0
16	14	53	58	870	1.0	-139019.0	5002.0	-5679760.0
16	14	53	58	871	2.0	-104043.0	6496.0	-5680212.0
16	14	53	58	871	3.0	-34293.0	6271.0	-5679434.0
16	14	53	58	871	4.0	88856.0	5638.0	-5678780.0
16	14	53	58	871	5.0	296124.0	5918.0	-5680073.0
16	14	53	58	872	6.0	569226.0	5808.0	-5680622.0
16	14	53	58	872	7.0	844998.0	5941.0	-5679916.0
16	14	53	58	872	8.0	1090581.0	6656.0	-5679119.0
16	14	53	58	872	9.0	1300437.0	7101.0	-5679533.0
16	14	53	58	873	10.0	1204053.0	7346.0	-5680132.0
16	14	53	58	873	11.0	743959.0	7354.0	-5679446.0
16	14	53	58	873	12.0	217226.0	6803.0	-5678910.0
16	14	53	58	873	13.0	-363841.0	7310.0	-5680112.0
16	14	53	58	873	14.0	-923474.0	6939.0	-5680002.0
16	14	53	58	874	16.0	-1257334.0	6870.0	-5678644.0
16	14	53	58	874	17.0	-688651.0	5786.0	-5680169.0
16	14	53	58	874	18.0	147853.0	5398.0	-5680434.0
16	14	53	58	874	19.0	850414.0	5382.0	-5679766.0
16	14	53	58	875	20.0	1179068.0	5507.0	-5678929.0
16	14	53	58	875	21.0	1183900.0	5978.0	-5679509.0
16	14	53	58	875	22.0	1036509.0	5839.0	-5680328.0
16	14	53	58	875	23.0	937945.0	5949.0	-5679656.0
16	14	53	58	875	24.0	971467.0	7186.0	-5679009.0
16	14	53	58	876	25.0	982246.0	7625.0	-5680187.0
16	14	53	58	876	26.0	771501.0	7538.0	-5680414.0
16	14	53	58	876	27.0	296999.0	7769.0	-5679653.0
16	14	53	58	876	28.0	-245054.0	8374.0	-5678841.0
16	14	53	58	877	29.0	-759949.0	8332.0	-5679624.0
16	14	53	58	877	30.0	-1341904.0	8203.0	-5680211.0
16	14	53	58	877	31.0	-1753032.0	7813.0	-5679487.0
16	14	53	58	877	32.0	-1838387.0	7528.0	-5678748.0
16	14	53	58	877	33.0	-1695759.0	7618.0	-5679416.0
16	14	53	58	878	34.0	-1406524.0	7839.0	-5679760.0
16	14	53	58	878	35.0	-968812.0	7722.0	-5679111.0
16	14	53	58	878	36.0	-446348.0	7971.0	-5679570.0
16	14	53	58	878	38.0	425883.0	8838.0	-5680106.0
16	14	53	58	879	39.0	643306.0	8734.0	-5679359.0
16	14	53	58	879	40.0	620958.0	7702.0	-5679089.0
16	14	53	58	879	41.0	456736.0	7654.0	-5680321.0
16	14	53	58	879	42.0	269577.0	8028.0	-5679947.0
16	14	53	58	879	43.0	99678.0	8248.0	-5679286.0
16	14	53	58	880	44.0	-68402.0	8165.0	-5680299.0
16	14	53	58	880	45.0	-214704.0	8161.0	-5680951.0
16	14	53	58	880	46.0	-281104.0	9641.0	-5680159.0
16	14	53	58	880	47.0	-243147.0	10468.0	-5679412.0
16	14	53	58	881	48.0	-140082.0	10338.0	-5679861.0
16	14	53	58	881	49.0	-36369.0	10751.0	-5680882.0
16	14	53	58	881	50.0	36368.0	10923.0	-5680236.0
16	14	53	58	881	51.0	81089.0	10118.0	-5679387.0
16	14	53	58	882	52.0	108758.0	10207.0	-5679471.0
16	14	53	58	882	53.0	118806.0	9769.0	-5680802.0
16	14	53	58	882	54.0	101549.0	9146.0	-5680376.0
16	14	53	58	882	55.0	71137.0	9009.0	-5679528.0
16	14	53	58	882	56.0	46962.0	9303.0	-5679524.0
16	14	53	58	883	57.0	26423.0	9438.0	-5680485.0
16	14	53	58	883	58.0	3953.0	9633.0	-5680007.0
16	14	53	58	883	61.0	-49896.0	9013.0	-5680462.0
16	14	53	58	883	62.0	-65414.0	7981.0	-5680126.0
16	14	53	58	884	63.0	-75643.0	7661.0	-5679297.0
16	14	53	58	884	64.0	-81835.0	7568.0	-5679844.0
16	14	53	58	884	65.0	-89623.0	7701.0	-5680615.0
16	14	53	58	885	66.0	-92651.0	7956.0	-5679998.0
16	14	53	58	988	67.0	-80904.0	7996.0	-5679132.0
16	14	53	58	989	68.0	-55186.0	8534.0	-5678822.0
16	14	53	58	989	69.0	-26233.0	9594.0	-5680066.0
16	14	53	58	989	70.0	-2495.0	9208.0	-5680014.0
16	14	53	58	989	71.0	22219.0	9123.0	-5679147.0
16	14	53	58	990	72.0	39947.0	9174.0	-5679106.0
16	14	53	58	990	73.0	47702.0	8949.0	-5680463.0
16	14	53	58	990	74.0	53080.0	8763.0	-5680121.0
16	14	53	58	990	75.0	49948.0	8625.0	-5679330.0
16	14	53	58	991	76.0	44648.0	8621.0	-5679795.0
16	14	53	58	991	77.0	54338.0	8670.0	-5680805.0
16	14	53	58	991	78.0	73715.0	8453.0	-5680194.0
16	14	53	58	991	79.0	103596.0	8333.0	-5679396.0
16	14	53	58	992	80.0	148263.0	8635.0	-5679257.0
16	14	53	58	992	81.0	212226.0	8938.0	-5680639.0
16	14	53	58	992	83.0	296742.0	8306.0	-5679573.0
16	14	53	58	992	105.0	-175873.0	13482.0	-5680499.0
16	14	53	58	993	113.0	-35910.0	23338.0	-5680142.0
16	14	53	58	993	114.0	2961.0	24318.0	-5679316.0
16	14	53	58	993	115.0	29996.0	25936.0	-5678698.0
16	14	53	58	993	116.0	46663.0	28176.0	-5679812.0
16	14	53	59	111	117.0	69543.0	30341.0	-5680334.0
16	14	53	59	112	118.0	91575.0	32771.0	-5679566.0
16	14	53	59	112	119.0	104386.0	35170.0	-5678834.0
16	14	53	59	112	120.0	111756.0	37806.0	-5679242.0
16	14	53	59	113	121.0	123245.0	40287.0	-5680253.0
16	14	53	59	113	122.0	130246.0	40672.0	-5679633.0
16	14	53	59	113	123.0	131539.0	42908.0	-5679071.0
16	14	53	59	113	124.0	118749.0	44414.0	-5680062.0
16	14	53	59	114	125.0	102189.0	45760.0	-5680104.0
16	14	53	59	114	126.0	100023.0	47154.0	-5679337.0
16	14	53	59	114	127.0	118864.0	48388.0	-5678669.0
16	14	53	59	114	128.0	150762.0	49118.0	-5679577.0
16	14	53	59	115	129.0	182051.0	48761.0	-5680061.0
16	14	53	59	115	130.0	198456.0	48541.0	-5679320.0
16	14	53	59	115	131.0	201118.0	49146.0	-5678534.0
16	14	53	59	115	132.0	188190.0	50639.0	-5679544.0
16	14	53	59	116	133.0	157933.0	51103.0	-5680104.0
16	14	53	59	116	134.0	110843.0	50936.0	-5679383.0
16	14	53	59	116	135.0	66928.0	51224.0	-5678556.0
16	14	53	59	116	136.0	54743.0	51026.0	-5679230.0
16	14	53	59	117	137.0	69733.0	50570.0	-5680182.0
16	14	53	59	117	138.0	103494.0	50218.0	-5679610.0
16	14	53	59	117	139.0	134689.0	49926.0	-5678836.0
16	14	53	59	117	140.0	153522.0	49617.0	-5679364.0
16	14	53	59	118	141.0	152736.0	48900.0	-5680374.0
16	14	53	59	118	142.0	131267.0	47548.0	-5679805.0
16	14	53	59	118	143.0	102096.0	46718.0	-5679107.0
16	14	53	59	118	144.0	65868.0	45256.0	-5680191.0
16	14	53	59	119	145.0	31831.0	43764.0	-5680532.0
16	14	53	59	119	146.0	-8455.0	42848.0	-5679800.0
16	14	53	59	119	147.0	-58426.0	41721.0	-5678929.0
16	14	53	59	119	148.0	-133317.0	40477.0	-5679106.0
16	14	53	59	120	149.0	-233492.0	39600.0	-5680164.0
16	14	53	59	120	150.0	-372929.0	39241.0	-5679643.0
16	14	53	59	120	151.0	-633597.0	37875.0	-5678821.0
16	14	53	59	120	152.0	-1050486.0	35939.0	-5679351.0
16	14	53	59	121	153.0	-1500609.0	35227.0	-5680182.0
16	14	53	59	121	154.0	-1793181.0	33661.0	-5679522.0
16	14	53	59	121	155.0	-1540208.0	31851.0	-5678881.0
16	14	53	59	121	156.0	-586818.0	30606.0	-5679912.0
16	14	53	59	122	157.0	637393.0	29686.0	-5680329.0
16	14	53	59	122	158.0	1506336.0	28258.0	-5679692.0
16	14	53	59	122	159.0	1786430.0	25608.0	-5678982.0
16	14	53	59	122	160.0	1550539.0	23379.0	-5679264.0
16	14	53	59	123	161.0	969099.0	21556.0	-5679420.0
16	14	53	59	123	162.0	368641.0	20859.0	-5678682.0
16	14	53	59	123	163.0	10768.0	20230.0	-5678991.0
16	14	53	59	123	164.0	-128253.0	18621.0	-5680044.0
16	14	53	59	124	165.0	-159080.0	16739.0	-5679351.0
16	14	53	59	124	166.0	-111434.0	15106.0	-5678601.0
16	14	53	59	124	167.0	6679.0	13041.0	-5678771.0
16	14	53	59	124	168.0	130881.0	11658.0	-5679994.0
16	14	53	59	125	169.0	221109.0	11254.0	-5679464.0
16	14	53	59	125	170.0	305045.0	10086.0	-5678715.0
16	14	53	59	125	171.0	393134.0	8310.0	-5679332.0
16	14	53	59	125	172.0	449321.0	6754.0	-5680328.0
16	14	53	59	126	173.0	436724.0	5757.0	-5679631.0
16	14	53	59	126	174.0	346971.0	2748.0	-5678994.0
16	14	53	59	126	175.0	207571.0	529.0	-5679964.0
16	14	53	59	126	176.0	63817.0	-177.0	-5680309.0
16	14	53	59	127	177.0	-21189.0	-73.0	-5679536.0
16	14	53	59	127	178.0	-31277.0	-1387.0	-5678755.0
16	14	53	59	127	179.0	-5699.0	-2534.0	-5678927.0
16	14	53	59	127	180.0	15628.0	-3505.0	-5680116.0
16	14	53	59	128	181.0	28566.0	-5551.0	-5679594.0
16	14	53	59	128	182.0	16069.0	-7626.0	-5678791.0
16	14	53	59	128	183.0	-20639.0	-8741.0	-5679352.0
16	14	53	59	128	184.0	-57466.0	-8683.0	-5680208.0
16	14	53	59	129	185.0	-92619.0	-9192.0	-5679595.0
16	14	53	59	129	186.0	-120425.0	-9786.0	-5678816.0
16	14	53	59	129	187.0	-139129.0	-10259.0	-5679412.0
16	14	53	59	234	188.0	-144314.0	-10940.0	-5680259.0
16	14	53	59	234	189.0	-137821.0	-12802.0	-5679671.0
16	14	53	59	235	190.0	-117898.0	-14041.0	-5678916.0
16	14	53	59	235	191.0	-93762.0	-14859.0	-5679568.0
16	14	53	59	235	192.0	-65598.0	-15042.0	-5680439.0
16	14	53	59	235	193.0	-33901.0	-15741.0	-5679814.0
16	14	53	59	236	194.0	19930.0	-16718.0	-5678980.0
16	14	53	59	236	195.0	93954.0	-17734.0	-5679392.0
16	14	53	59	236	196.0	179014.0	-18716.0	-5680285.0
16	14	53	59	236	197.0	252624.0	-19846.0	-5679722.0
16	14	53	59	237	198.0	294066.0	-20032.0	-5678902.0
16	14	53	59	237	199.0	314792.0	-19880.0	-5679146.0
16	14	53	59	237	200.0	333414.0	-19931.0	-5680398.0
16	14	53	59	237	201.0	401026.0	-20502.0	-5679914.0
16	14	53	59	238	202.0	429998.0	-21001.0	-5679325.0
16	14	53	59	238	203.0	513786.0	-21877.0	-5680614.0
16	14	53	59	238	204.0	590596.0	-23591.0	-5680908.0
16	14	53	59	239	205.0	487030.0	-24506.0	-5680173.0
16	14	53	59	239	206.0	360197.0	-24429.0	-5679350.0
16	14	53	59	239	207.0	321843.0	-23964.0	-5679622.0
16	14	53	59	239	208.0	286972.0	-24632.0	-5680650.0
16	14	53	59	240	209.0	206166.0	-25066.0	-5680079.0
16	14	53	59	240	210.0	113653.0	-25267.0	-5679261.0
16	14	53	59	240	211.0	43348.0	-25944.0	-5679529.0
16	14	53	59	240	212.0	5075.0	-27230.0	-5680391.0
16	14	53	59	241	213.0	-15442.0	-27269.0	-5679745.0
16	14	53	59	241	214.0	-42554.0	-26698.0	-5679013.0
16	14	53	59	241	215.0	-79581.0	-26198.0	-5679277.0
16	14	53	59	241	216.0	-118639.0	-26228.0	-5679879.0
16	14	53	59	242	217.0	-162706.0	-26041.0	-5679237.0
16	14	53	59	242	218.0	-207059.0	-25461.0	-5678683.0
16	14	53	59	242	219.0	-254643.0	-26435.0	-5679832.0
16	14	53	59	242	220.0	-301213.0	-26897.0	-5679941.0
16	14	53	59	243	221.0	-338088.0	-26451.0	-5679211.0
16	14	53	59	243	222.0	-361058.0	-25743.0	-5679132.0
16	14	53	59	243	223.0	-369447.0	-25704.0	-5680463.0
16	14	53	59	244	224.0	-363541.0	-25930.0	-5680074.0
16	14	53	59	244	225.0	-352279.0	-25486.0	-5679291.0
16	14	53	59	244	226.0	-339204.0	-25916.0	-5679142.0
16	14	53	59	244	227.0	-327902.0	-26240.0	-5680544.0
16	14	53	59	245	228.0	-316791.0	-25731.0	-5680298.0
16	14	53	59	245	229.0	-318406.0	-24382.0	-5679469.0
16	14	53	59	246	230.0	-334584.0	-23409.0	-5678914.0
16	14	53	59	246	231.0	-345622.0	-23374.0	-5679854.0
16	14	53	59	246	232.0	-343774.0	-23486.0	-5680109.0
16	14	53	59	246	233.0	-347781.0	-23649.0	-5679304.0
16	14	53	59	247	234.0	-370878.0	-23681.0	-5679212.0
16	14	53	59	247	235.0	-395578.0	-23319.0	-5680319.0
16	14	53	59	247	236.0	-407322.0	-21994.0	-5679937.0
16	14	53	59	248	237.0	-390659.0	-20185.0	-5679100.0
16	14	53	59	248	238.0	-351143.0	-19421.0	-5678792.0
16	14	53	59	248	239.0	-300399.0	-18456.0	-5680051.0
16	14	53	59	249	240.0	-242813.0	-18178.0	-5680007.0
16	14	53	59	249	241.0	-176978.0	-18229.0	-5679167.0
16	14	53	59	249	242.0	-108947.0	-18196.0	-5679251.0
16	14	53	59	250	243.0	-55509.0	-17126.0	-5680384.0
16	14	53	59	250	244.0	-20012.0	-15328.0	-5679974.0
16	14	53	59	250	245.0	-2967.0	-14383.0	-5679134.0
16	14	53	59	251	246.0	6733.0	-14129.0	-5678697.0
16	14	53	59	251	247.0	15963.0	-13988.0	-5679714.0
16	14	53	59	251	248.0	25583.0	-13272.0	-5679714.0
16	14	53	59	252	249.0	33425.0	-13415.0	-5678882.0
16	14	53	59	356	250.0	34252.0	-13176.0	-5678629.0
16	14	53	59	357	251.0	34386.0	-12182.0	-5679900.0
16	14	53	59	357	252.0	26405.0	-11179.0	-5679744.0
16	14	53	59	357	253.0	9914.0	-10148.0	-5678923.0
16	14	53	59	357	254.0	-15780.0	-9759.0	-5679536.0
16	14	53	59	358	255.0	-40451.0	-9341.0	-5680456.0
16	14	53	59	358	0.0	-59064.0	-9687.0	-5679856.0
16	14	53	59	358	1.0	-72636.0	-9656.0	-5679045.0
16	14	53	59	358	2.0	-80528.0	-8668.0	-5678797.0
16	14	53	59	359	3.0	-70606.0	-7072.0	-5679865.0
16	14	53	59	359	4.0	-27534.0	-6053.0	-5679514.0
16	14	53	59	359	5.0	35207.0	-5818.0	-5678738.0
16	14	53	59	360	6.0	83074.0	-5575.0	-5678732.0
16	14	53	59	360	7.0	101553.0	-5064.0	-5679881.0
16	14	53	59	360	8.0	113617.0	-5765.0	-5679385.0
16	14	53	59	360	9.0	122825.0	-5206.0	-5678636.0
16	14	53	59	361	10.0	112894.0	-3848.0	-5678673.0
16	14	53	59	361	11.0	97262.0	-2384.0	-5679457.0
16	14	53	59	361	12.0	97161.0	-1444.0	-5678879.0
16	14	53	59	361	13.0	128918.0	-1089.0	-5678247.0
16	14	53	59	362	14.0	175075.0	-637.0	-5679183.0
16	14	53	59	362	15.0	215046.0	-1389.0	-5679324.0
16	14	53	59	362	16.0	239639.0	-1913.0	-5678575.0
16	14	53	59	362	17.0	251780.0	-952.0	-5678683.0
16	14	53	59	363	18.0	257543.0	686.0	-5679759.0
16	14	53	59	363	19.0	267317.0	1186.0	-5679197.0
16	14	53	59	363	20.0	285381.0	1739.0	-5678376.0
16	14	53	59	363	21.0	290849.0	2164.0	-5677839.0
16	14	53	59	364	22.0	286873.0	2066.0	-5678956.0
16	14	53	59	364	23.0	271406.0	1019.0	-5679305.0
16	14	53	59	364	24.0	247965.0	705.0	-5678520.0
16	14	53	59	364	25.0	245940.0	1184.0	-5678286.0
16	14	53	59	365	26.0	250906.0	1799.0	-5679575.0
16	14	53	59	365	27.0	248419.0	2362.0	-5679422.0
16	14	53	59	365	28.0	236861.0	2199.0	-5678611.0
16	14	53	59	366	29.0	212076.0	2363.0	-5678839.0
16	14	53	59	366	30.0	177007.0	1756.0	-5680032.0
16	14	53	59	366	31.0	128073.0	658.0	-5679576.0
16	14	53	59	366	32.0	71919.0	1091.0	-5678780.0
16	14	53	59	367	33.0	19691.0	2363.0	-5678527.0
16	14	53	59	367	34.0	-12439.0	2509.0	-5679744.0
16	14	53	59	368	35.0	-24671.0	2662.0	-5679572.0
16	14	53	59	368	36.0	-26776.0	2210.0	-5678730.0
16	14	53	59	368	37.0	-21726.0	1934.0	-5678678.0
16	14	53	59	369	38.0	-4164.0	959.0	-5679822.0
16	14	53	59	369	39.0	21569.0	754.0	-5679491.0
16	14	53	59	369	40.0	38453.0	1215.0	-5678641.0
16	14	53	59	370	41.0	35355.0	2188.0	-5678077.0
16	14	53	59	370	42.0	18846.0	2053.0	-5678971.0
16	14	53	59	371	43.0	-5776.0	1656.0	-5679192.0
16	14	53	59	371	44.0	-31830.0	1340.0	-5678361.0
16	14	53	59	371	45.0	-52637.0	564.0	-5678307.0
16	14	53	59	371	46.0	-88445.0	-357.0	-5679501.0
16	14	53	59	372	47.0	-131659.0	-117.0	-5679154.0
16	14	53	59	372	48.0	-180093.0	965.0	-5678331.0
16	14	53	59	372	49.0	-234463.0	838.0	-5678384.0
16	14	53	59	373	50.0	-287678.0	898.0	-5679653.0
16	14	53	59	373	51.0	-340354.0	1121.0	-5679192.0
16	14	53	59	373	52.0	-390250.0	705.0	-5678389.0
16	14	53	59	374	53.0	-437591.0	-554.0	-5677981.0
16	14	53	59	479	54.0	-467146.0	-1240.0	-5679244.0
16	14	53	59	480	55.0	-477930.0	-409.0	-5679111.0
16	14	53	59	480	56.0	-466195.0	167.0	-5678330.0
16	14	53	59	480	57.0	-420126.0	33.0	-5678356.0
16	14	53	59	481	58.0	-327439.0	109.0	-5679702.0
16	14	53	59	481	59.0	-212579.0	86.0	-5679241.0
16	14	53	59	481	60.0	-109391.0	-341.0	-5678541.0
16	14	53	59	481	61.0	-19961.0	-1798.0	-5678310.0
16	14	53	59	482	62.0	61655.0	-940.0	-5679584.0
16	14	53	59	482	63.0	132148.0	281.0	-5679243.0
16	14	53	59	482	64.0	184738.0	-194.0	-5678490.0
16	14	53	59	483	65.0	202099.0	-397.0	-5678257.0
16	14	53	59	483	66.0	185665.0	-674.0	-5679617.0
16	14	53	59	483	67.0	147428.0	-498.0	-5679220.0
16	14	53	59	483	68.0	96730.0	-1697.0	-5678509.0
16	14	53	59	484	69.0	44518.0	-1789.0	-5678030.0
16	14	53	59	484	70.0	-1537.0	-665.0	-5678899.0
16	14	53	59	484	71.0	-24351.0	-206.0	-5678516.0
16	14	53	59	485	72.0	-16832.0	-244.0	-5677876.0
16	14	53	59	485	73.0	10788.0	61.0	-5678571.0
16	14	53	59	485	74.0	50548.0	157.0	-5679249.0
16	14	53	59	486	75.0	87123.0	-599.0	-5678471.0
16	14	53	59	486	76.0	109771.0	-1591.0	-5678274.0
16	14	53	59	486	77.0	120139.0	-1644.0	-5679714.0
16	14	53	59	486	78.0	140386.0	-728.0	-5679624.0
16	14	53	59	487	79.0	161536.0	-304.0	-5678788.0
16	14	53	59	487	80.0	169578.0	-49.0	-5678245.0
16	14	53	59	487	81.0	158867.0	18.0	-5679184.0
16	14	53	59	487	82.0	136511.0	271.0	-5679605.0
16	14	53	59	488	83.0	112942.0	-125.0	-5678747.0
16	14	53	59	488	84.0	97172.0	559.0	-5678108.0
16	14	53	59	488	85.0	111433.0	881.0	-5679059.0
16	14	53	59	488	86.0	138140.0	820.0	-5679717.0
16	14	53	59	489	87.0	162260.0	545.0	-5678942.0
16	14	53	59	489	88.0	166033.0	317.0	-5678281.0
16	14	53	59	489	89.0	151570.0	1028.0	-5679182.0
16	14	53	59	490	90.0	121778.0	919.0	-5679766.0
16	14	53	59	490	91.0	73018.0	154.0	-5679034.0
16	14	53	59	490	92.0	17339.0	284.0	-5678402.0
16	14	53	59	491	93.0	-40959.0	566.0	-5679262.0
16	14	53	59	491	94.0	-87972.0	881.0	-5679799.0
16	14	53	59	492	95.0	-128483.0	2082.0	-5679006.0
16	14	53	59	492	96.0	-153330.0	2592.0	-5678485.0
16	14	53	59	492	97.0	-152209.0	2536.0	-5679732.0
16	14	53	59	493	98.0	-128304.0	1091.0	-5679917.0
16	14	53	59	493	99.0	-96709.0	1711.0	-5679130.0
16	14	53	59	493	100.0	-69361.0	2654.0	-5678333.0
16	14	53	59	494	101.0	-52443.0	3203.0	-5678857.0
16	14	53	59	494	102.0	-22652.0	3873.0	-5679620.0
16	14	53	59	494	103.0	26098.0	4204.0	-5678999.0
16	14	53	59	495	104.0	84229.0	4348.0	-5678244.0
16	14	53	59	495	105.0	132721.0	3404.0	-5679100.0
16	14	53	59	495	106.0	160660.0	2178.0	-5679750.0
16	14	53	59	496	107.0	176309.0	1930.0	-5679087.0
16	14	53	59	496	108.0	180643.0	2284.0	-5678544.0
16	14	53	59	496	109.0	179032.0	3314.0	-5679814.0
16	14	53	59	497	110.0	172438.0	3540.0	-5679761.0
16	14	53	59	497	111.0	142566.0	3573.0	-5679050.0
16	14	53	59	497	112.0	101209.0	3740.0	-5678281.0
16	14	53	59	592	113.0	62854.0	2419.0	-5679076.0
16	14	53	59	593	114.0	33098.0	2876.0	-5679619.0
16	14	53	59	593	115.0	12443.0	4106.0	-5678914.0
16	14	53	59	593	116.0	-12236.0	4203.0	-5678159.0
16	14	53	59	594	117.0	-38714.0	4171.0	-5679204.0
16	14	53	59	594	118.0	-65363.0	4391.0	-5679743.0
16	14	53	59	594	119.0	-88043.0	4134.0	-5679053.0
16	14	53	59	595	120.0	-106430.0	3809.0	-5678261.0
16	14	53	59	595	121.0	-126446.0	3483.0	-5678681.0
16	14	53	59	595	122.0	-161834.0	3825.0	-5679643.0
16	14	53	59	595	123.0	-196519.0	5296.0	-5679062.0
16	14	53	59	596	124.0	-225254.0	5028.0	-5678309.0
16	14	53	59	596	125.0	-241116.0	5066.0	-5678702.0
16	14	53	59	596	126.0	-240747.0	5081.0	-5678837.0
16	14	53	59	596	127.0	-212327.0	4915.0	-5678284.0
16	14	53	59	597	128.0	-172317.0	4002.0	-5679209.0
16	14	53	59	597	129.0	-129829.0	4383.0	-5679654.0
16	14	53	59	597	130.0	-95779.0	5698.0	-5678853.0
16	14	53	59	598	131.0	-67971.0	6180.0	-5678097.0
16	14	53	59	598	132.0	-29753.0	6139.0	-5677990.0
16	14	53	59	598	133.0	27464.0	6262.0	-5679340.0
16	14	53	59	598	134.0	122619.0	6420.0	-5678921.0
16	14	53	59	599	135.0	267272.0	6511.0	-5678211.0
16	14	53	59	599	136.0	451569.0	6873.0	-5678597.0
16	14	53	59	599	137.0	640139.0	6733.0	-5679590.0
16	14	53	59	600	138.0	810459.0	6821.0	-5678959.0
16	14	53	59	600	139.0	962829.0	7005.0	-5678241.0
16	14	53	59	600	140.0	1123143.0	7145.0	-5678691.0
16	14	53	59	600	141.0	1157220.0	7277.0	-5679749.0
16	14	53	59	601	142.0	777686.0	6756.0	-5679044.0
16	14	53	59	601	143.0	265422.0	5826.0	-5678251.0
16	14	53	59	601	144.0	-355517.0	6005.0	-5678547.0
16	14	53	59	602	145.0	-940705.0	5916.0	-5679351.0
16	14	53	59	602	146.0	-1362283.0	5686.0	-5678654.0
16	14	53	59	602	147.0	-1395371.0	5653.0	-5677851.0
16	14	53	59	603	148.0	-856911.0	6140.0	-5678492.0
16	14	53	59	603	149.0	36330.0	7452.0	-5679221.0
16	14	53	59	603	150.0	840114.0	7199.0	-5678617.0
16	14	53	59	604	151.0	1244258.0	7931.0	-5677806.0
16	14	53	59	604	152.0	1244344.0	8061.0	-5677873.0
16	14	53	59	604	153.0	996348.0	8044.0	-5679036.0
16	14	53	59	604	154.0	731086.0	7330.0	-5678583.0
16	14	53	59	605	155.0	617024.0	7726.0	-5677851.0
16	14	53	59	605	156.0	563222.0	7566.0	-5678755.0
16	14	53	59	605	157.0	341794.0	6690.0	-5679378.0
16	14	53	59	605	158.0	-119378.0	6213.0	-5678647.0
16	14	53	59	606	159.0	-725181.0	6256.0	-5677864.0
16	14	53	59	606	160.0	-1310989.0	6403.0	-5678746.0
16	14	53	59	606	161.0	-1828554.0	8196.0	-5679141.0
16	14	53	59	607	162.0	-2195315.0	8759.0	-5678408.0
16	14	53	59	607	163.0	-2212159.0	8636.0	-5677515.0
16	14	53	59	607	164.0	-1892636.0	8440.0	-5677894.0
16	14	53	59	702	165.0	-1449732.0	7749.0	-5679057.0
16	14	53	59	702	166.0	-986999.0	7509.0	-5678547.0
16	14	53	59	702	167.0	-490654.0	8363.0	-5677787.0
16	14	53	59	703	168.0	19871.0	8463.0	-5678505.0
16	14	53	59	703	169.0	336469.0	7888.0	-5679267.0
16	14	53	59	703	170.0	581008.0	8354.0	-5678641.0
16	14	53	59	703	171.0	853459.0	9181.0	-5677853.0
16	14	53	59	704	172.0	753884.0	8689.0	-5678094.0
16	14	53	59	704	173.0	424028.0	7939.0	-5679354.0
16	14	53	59	704	174.0	242885.0	7953.0	-5678829.0
16	14	53	59	704	175.0	193748.0	8559.0	-5678100.0
16	14	53	59	704	176.0	150400.0	9289.0	-5678719.0
16	14	53	59	705	177.0	130189.0	8733.0	-5679017.0
16	14	53	59	705	178.0	172992.0	9083.0	-5678319.0
16	14	53	59	705	179.0	271534.0	9486.0	-5677541.0
16	14	53	59	706	180.0	373527.0	8898.0	-5677959.0
16	14	53	59	706	181.0	461580.0	8181.0	-5678116.0
16	14	53	59	706	182.0	525838.0	9096.0	-5677457.0
16	14	53	59	706	183.0	543797.0	9784.0	-5677781.0
16	14	53	59	707	184.0	524594.0	9694.0	-5678497.0
16	14	53	59	707	185.0	486959.0	9533.0	-5677756.0
16	14	53	59	707	186.0	446314.0	9296.0	-5677512.0
16	14	53	59	707	187.0	397689.0	8951.0	-5678882.0
16	14	53	59	708	188.0	333235.0	8008.0	-5678754.0
16	14	53	59	708	189.0	248295.0	7837.0	-5677923.0
16	14	53	59	708	190.0	160739.0	8666.0	-5677432.0
16	14	53	59	709	191.0	93732.0	9762.0	-5678491.0
16	14	53	59	709	192.0	55179.0	10017.0	-5678641.0
16	14	53	59	709	193.0	29980.0	10151.0	-5677802.0
16	14	53	59	709	194.0	-1606.0	10542.0	-5677338.0
16	14	53	59	710	195.0	-41337.0	9664.0	-5678411.0
16	14	53	59	710	196.0	-88273.0	8611.0	-5678381.0
16	14	53	59	710	197.0	-158737.0	9355.0	-5677564.0
16	14	53	59	711	198.0	-250170.0	10126.0	-5677339.0
16	14	53	59	711	199.0	-301866.0	9451.0	-5678616.0
16	14	53	59	711	200.0	-297707.0	9394.0	-5678302.0
16	14	53	59	711	201.0	-289834.0	10083.0	-5677548.0
16	14	53	59	712	202.0	-304537.0	10123.0	-5677052.0
16	14	53	59	712	203.0	-326818.0	8775.0	-5678282.0
16	14	53	59	712	204.0	-340627.0	8713.0	-5678267.0
16	14	53	59	713	205.0	-348159.0	8963.0	-5677495.0
16	14	53	59	713	206.0	-325994.0	9908.0	-5677594.0
16	14	53	59	713	207.0	-273814.0	10074.0	-5678779.0
16	14	53	59	713	208.0	-207052.0	9902.0	-5678217.0
16	14	53	59	714	209.0	-136036.0	10313.0	-5677484.0
16	14	53	59	714	210.0	-61534.0	9150.0	-5677286.0
16	14	53	59	714	211.0	15234.0	8700.0	-5678146.0
16	14	53	59	715	212.0	83766.0	10098.0	-5677615.0
16	14	53	59	715	213.0	137506.0	10693.0	-5676931.0
16	14	53	59	715	214.0	189806.0	10198.0	-5677665.0
16	14	53	59	716	215.0	225508.0	10127.0	-5678376.0
16	14	53	59	716	216.0	228961.0	9999.0	-5677572.0
16	14	53	59	716	217.0	210860.0	9756.0	-5677105.0
16	14	53	59	716	218.0	182281.0	8648.0	-5678157.0
16	14	53	59	821	219.0	160839.0	8249.0	-5678328.0
16	14	53	59	821	220.0	143267.0	8629.0	-5677546.0
16	14	53	59	822	221.0	131658.0	9871.0	-5677031.0
16	14	53	59	822	222.0	122830.0	9774.0	-5677976.0
16	14	53	59	822	223.0	121140.0	9416.0	-5678233.0
16	14	53	59	822	224.0	112762.0	9333.0	-5677372.0
16	14	53	59	823	225.0	100605.0	8389.0	-5677214.0
16	14	53	59	823	226.0	89884.0	8312.0	-5678454.0
16	14	53	59	823	227.0	80669.0	9834.0	-5678163.0
16	14	53	59	824	228.0	76619.0	10958.0	-5677307.0
16	14	53	59	824	229.0	68633.0	11644.0	-5676782.0
16	14	53	59	824	230.0	68913.0	11669.0	-5677971.0
16	14	53	59	824	231.0	86857.0	11898.0	-5678349.0
16	14	53	59	825	232.0	114296.0	11969.0	-5677542.0
16	14	53	59	825	233.0	130733.0	11426.0	-5676907.0
16	14	53	59	825	234.0	130071.0	11380.0	-5677729.0
16	14	53	59	825	235.0	105602.0	12952.0	-5678046.0
16	14	53	59	826	236.0	70130.0	14873.0	-5677222.0
16	14	53	59	826	237.0	27688.0	15510.0	-5676926.0
16	14	53	59	826	238.0	-20681.0	16336.0	-5678246.0
16	14	53	59	826	239.0	-71108.0	17799.0	-5678084.0
16	14	53	59	827	240.0	-119324.0	18051.0	-5677278.0
16	14	53	59	827	241.0	-162237.0	18742.0	-5676903.0
16	14	53	59	827	242.0	-189251.0	21091.0	-5678421.0
16	14	53	59	827	243.0	-201972.0	23593.0	-5678342.0
16	14	53	59	828	244.0	-199762.0	25228.0	-5677572.0
16	14	53	59	828	245.0	-197041.0	26726.0	-5677032.0
16	14	53	59	828	246.0	-189366.0	28758.0	-5678171.0
16	14	53	59	829	247.0	-178708.0	30716.0	-5678081.0
16	14	53	59	829	248.0	-158902.0	31579.0	-5677336.0
16	14	53	59	829	249.0	-130371.0	33813.0	-5676997.0
16	14	53	59	829	250.0	-96395.0	36508.0	-5678061.0
16	14	53	59	830	251.0	-62846.0	38910.0	-5677656.0
16	14	53	59	830	252.0	-44765.0	40731.0	-5676945.0
16	14	53	59	830	253.0	-35714.0	42591.0	-5676651.0
16	14	53	59	830	254.0	-23147.0	43788.0	-5677526.0
16	14	53	59	830	255.0	-6767.0	43939.0	-5677034.0
16	14	53	59	831	0.0	4978.0	44175.0	-5677142.0
16	14	53	59	831	1.0	-557.0	45833.0	-5678472.0
16	14	53	59	831	2.0	-11592.0	47123.0	-5678057.0
16	14	53	59	832	3.0	-29125.0	47858.0	-5677211.0
16	14	53	59	832	4.0	-41883.0	48834.0	-5676552.0
16	14	53	59	832	5.0	-39383.0	49669.0	-5677295.0
16	14	53	59	832	6.0	-27755.0	49418.0	-5678008.0
16	14	53	59	833	7.0	-16914.0	48629.0	-5677214.0
16	14	53	59	833	8.0	-7402.0	49443.0	-5676591.0
16	14	53	59	833	9.0	453.0	50550.0	-5677423.0
16	14	53	59	834	10.0	3539.0	50322.0	-5678005.0
16	14	53	59	834	11.0	6966.0	50291.0	-5677236.0
16	14	53	59	834	12.0	15734.0	50271.0	-5676859.0
16	14	53	59	835	13.0	40696.0	49888.0	-5678052.0
16	14	53	59	835	14.0	77294.0	48679.0	-5678147.0
16	14	53	59	835	15.0	132790.0	47869.0	-5677323.0
16	14	53	59	836	16.0	178879.0	47414.0	-5676848.0
16	14	53	59	836	17.0	188031.0	47809.0	-5677961.0
16	14	53	59	836	18.0	171196.0	47309.0	-5678288.0
16	14	53	59	836	19.0	140995.0	46469.0	-5677421.0
16	14	53	59	837	20.0	102046.0	45383.0	-5676886.0
16	14	53	59	837	21.0	55361.0	43921.0	-5678080.0
16	14	53	59	931	22.0	4207.0	42401.0	-5678456.0
16	14	53	59	931	23.0	-62611.0	41098.0	-5677659.0
16	14	53	59	932	24.0	-136445.0	40874.0	-5676942.0
16	14	53	59	932	25.0	-211216.0	40326.0	-5677234.0
16	14	53	59	932	26.0	-354981.0	38910.0	-5678113.0
16	14	53	59	933	27.0	-670012.0	36973.0	-5677427.0
16	14	53	59	933	28.0	-1095206.0	35364.0	-5676773.0
16	14	53	59	933	29.0	-1503246.0	32706.0	-5677707.0
16	14	53	59	933	30.0	-1542864.0	31052.0	-5678124.0
16	14	53	59	934	31.0	-881182.0	30611.0	-5677412.0
16	14	53	59	934	32.0	292164.0	29836.0	-5676933.0
16	14	53	59	934	33.0	1349709.0	28374.0	-5678140.0
16	14	53	59	934	34.0	1827448.0	27918.0	-5678644.0
16	14	53	59	935	35.0	1705350.0	26613.0	-5677837.0
16	14	53	59	935	36.0	1129573.0	24096.0	-5676987.0
16	14	53	59	935	37.0	411445.0	21256.0	-5677552.0
16	14	53	59	935	38.0	-98029.0	19966.0	-5678444.0
16	14	53	59	936	39.0	-331046.0	19058.0	-5677777.0
16	14	53	59	936	40.0	-417414.0	17139.0	-5676987.0
16	14	53	59	936	41.0	-426136.0	15401.0	-5677793.0
16	14	53	59	936	42.0	-368528.0	14506.0	-5678665.0
16	14	53	59	937	43.0	-259044.0	13290.0	-5678052.0
16	14	53	59	937	44.0	-147177.0	10983.0	-5677262.0
16	14	53	59	937	45.0	-57200.0	9288.0	-5677733.0
16	14	53	59	937	46.0	5326.0	8331.0	-5678716.0
16	14	53	59	938	47.0	49999.0	8231.0	-5678145.0
16	14	53	59	938	48.0	57332.0	7654.0	-5677437.0
16	14	53	59	938	49.0	-8877.0	5976.0	-5678464.0
16	14	53	59	938	50.0	-142407.0	4226.0	-5678982.0
16	14	53	59	939	51.0	-298680.0	1858.0	-5678255.0
16	14	53	59	939	52.0	-412242.0	47.0	-5677432.0
16	14	53	59	939	53.0	-462716.0	-597.0	-5678032.0
16	14	53	59	940	54.0	-462198.0	-464.0	-5678864.0
16	14	53	59	940	55.0	-409994.0	-1603.0	-5678257.0
16	14	53	59	940	56.0	-328465.0	-3046.0	-5677435.0
16	14	53	59	940	57.0	-259476.0	-4142.0	-5677494.0
16	14	53	59	941	58.0	-223079.0	-5339.0	-5678672.0
16	14	53	59	941	59.0	-218094.0	-7738.0	-5678257.0
16	14	53	59	941	60.0	-227403.0	-9351.0	-5677583.0
16	14	53	59	942	61.0	-227968.0	-9701.0	-5678246.0
16	14	53	59	942	62.0	-206246.0	-9547.0	-5678125.0
16	14	53	59	942	63.0	-166686.0	-10891.0	-5677434.0
16	14	53	59	943	64.0	-129429.0	-11977.0	-5677203.0
16	14	53	59	943	65.0	-82020.0	-12010.0	-5678651.0
16	14	53	59	943	66.0	-22366.0	-13282.0	-5678279.0
16	14	53	59	943	67.0	47033.0	-15149.0	-5677549.0
16	14	53	59	944	68.0	107182.0	-15846.0	-5677421.0
16	14	53	59	944	69.0	141739.0	-15298.0	-5678782.0
16	14	53	59	944	70.0	167829.0	-16077.0	-5678355.0
16	14	53	59	944	71.0	198847.0	-16648.0	-5677609.0
16	14	53	59	945	72.0	239773.0	-17666.0	-5677426.0
16	14	53	59	945	73.0	282501.0	-18152.0	-5678527.0
16	14	53	59	945	74.0	318812.0	-19921.0	-5678077.0
16	14	53	59	946	75.0	354576.0	-20769.0	-5677342.0
16	14	53	59	946	76.0	391606.0	-20548.0	-5677386.0
16	14	53	59	946	77.0	423575.0	-20095.0	-5678484.0
16	14	53	59	946	78.0	447144.0	-20892.0	-5677919.0
16	14	53	59	947	79.0	460948.0	-21529.0	-5677262.0
16	14	53	59	947	80.0	454849.0	-22421.0	-5678091.0
16	14	53	59	947	81.0	436879.0	-23577.0	-5678795.0
16	14	54	0	31	82.0	409486.0	-25181.0	-5678045.0
16	14	54	0	32	83.0	375799.0	-25131.0	-5677257.0
16	14	54	0	32	84.0	342491.0	-24121.0	-5677199.0
16	14	54	0	32	85.0	301976.0	-24653.0	-5678538.0
16	14	54	0	33	86.0	254382.0	-25219.0	-5678182.0
16	14	54	0	33	87.0	208510.0	-25559.0	-5677396.0
16	14	54	0	33	88.0	169182.0	-25459.0	-5677427.0
16	14	54	0	33	89.0	140194.0	-27059.0	-5678559.0
16	14	54	0	34	90.0	118959.0	-28072.0	-5678121.0
16	14	54	0	34	91.0	101598.0	-27990.0	-5677358.0
16	14	54	0	34	92.0	87331.0	-27227.0	-5678027.0
16	14	54	0	35	93.0	82195.0	-26806.0	-5678712.0
16	14	54	0	35	94.0	85581.0	-27062.0	-5678059.0
16	14	54	0	35	95.0	97003.0	-26728.0	-5677243.0
16	14	54	0	35	96.0	103038.0	-26747.0	-5677593.0
16	14	54	0	36	97.0	98991.0	-27354.0	-5678693.0
16	14	54	0	36	98.0	89833.0	-27224.0	-5678138.0
16	14	54	0	36	99.0	76516.0	-26351.0	-5677267.0
16	14	54	0	36	100.0	63667.0	-26532.0	-5677729.0
16	14	54	0	37	101.0	63258.0	-25957.0	-5678679.0
16	14	54	0	37	102.0	73788.0	-25631.0	-5678126.0
16	14	54	0	37	103.0	81043.0	-25396.0	-5677311.0
16	14	54	0	38	104.0	78655.0	-26061.0	-5677424.0
16	14	54	0	38	105.0	62393.0	-25692.0	-5678692.0
16	14	54	0	38	106.0	27231.0	-24477.0	-5678301.0
16	14	54	0	38	107.0	-24319.0	-23276.0	-5677475.0
16	14	54	0	39	108.0	-71236.0	-23086.0	-5677727.0
16	14	54	0	39	109.0	-118349.0	-22593.0	-5678668.0
16	14	54	0	39	110.0	-144932.0	-22303.0	-5678113.0
16	14	54	0	40	111.0	-144512.0	-22406.0	-5677380.0
16	14	54	0	40	112.0	-133285.0	-22616.0	-5678030.0
16	14	54	0	40	113.0	-117385.0	-21719.0	-5678177.0
16	14	54	0	40	114.0	-99393.0	-20341.0	-5677475.0
16	14	54	0	41	115.0	-79412.0	-19671.0	-5676698.0
16	14	54	0	42	116.0	-65324.0	-18927.0	-5677497.0
16	14	54	0	42	117.0	-53187.0	-18312.0	-5677890.0
16	14	54	0	42	118.0	-42759.0	-17834.0	-5677152.0
16	14	54	0	43	119.0	-31062.0	-18646.0	-5677142.0
16	14	54	0	43	120.0	-24131.0	-18331.0	-5678391.0
16	14	54	0	43	121.0	-20090.0	-16426.0	-5677876.0
16	14	54	0	44	122.0	-30792.0	-14932.0	-5677108.0
16	14	54	0	44	123.0	-56610.0	-14785.0	-5676918.0
16	14	54	0	44	124.0	-96744.0	-14167.0	-5678214.0
16	14	54	0	45	125.0	-123293.0	-13040.0	-5677859.0
16	14	54	0	45	126.0	-130769.0	-13158.0	-5677117.0
16	14	54	0	46	127.0	-126534.0	-13173.0	-5677165.0
16	14	54	0	46	128.0	-110684.0	-12053.0	-5678366.0
16	14	54	0	131	129.0	-78322.0	-10321.0	-5677867.0
16	14	54	0	131	130.0	-31473.0	-9419.0	-5677066.0
16	14	54	0	131	131.0	14019.0	-8813.0	-5677257.0
