16	14	23	38	878	113.0	-141866.0	-64792.0	-5818048.0
16	14	23	38	881	114.0	-167978.0	-64852.0	-5817477.0
16	14	23	38	883	115.0	-185479.0	-63799.0	-5816981.0
16	14	23	38	884	116.0	-175844.0	-62754.0	-5817646.0
16	14	23	38	886	117.0	-148534.0	-61856.0	-5817411.0
16	14	23	38	911	118.0	-110456.0	-62246.0	-5816856.0
16	14	23	38	912	119.0	-65992.0	-61836.0	-5816682.0
16	14	23	38	912	120.0	-28364.0	-59909.0	-5817968.0
16	14	23	38	913	121.0	-25676.0	-58717.0	-5817726.0
16	14	23	38	913	122.0	-85651.0	-58487.0	-5817150.0
16	14	23	38	913	123.0	-244385.0	-56312.0	-5817025.0
16	14	23	38	914	124.0	-573062.0	-55097.0	-5817794.0
16	14	23	38	914	125.0	-1143559.0	-54494.0	-5817324.0
16	14	23	38	915	126.0	-1979314.0	-54396.0	-5816624.0
16	14	23	38	915	127.0	-2965096.0	-52917.0	-5816607.0
16	14	23	38	915	128.0	-3543331.0	-51675.0	-5817257.0
16	14	23	38	916	129.0	-3641981.0	-51541.0	-5816779.0
16	14	23	38	916	130.0	-3376617.0	-50609.0	-5816174.0
16	14	23	38	917	131.0	-2707269.0	-48326.0	-5816495.0
16	14	23	38	917	132.0	-1658791.0	-47337.0	-5817555.0
16	14	23	38	918	133.0	-447538.0	-47157.0	-5817224.0
16	14	23	38	918	134.0	759542.0	-45822.0	-5816727.0
16	14	23	38	918	135.0	1894925.0	-43452.0	-5816551.0
16	14	23	38	974	136.0	2862741.0	-41876.0	-5817984.0
16	14	23	39	44	137.0	3520928.0	-41564.0	-5818048.0
16	14	23	39	44	138.0	3795083.0	-39136.0	-5817465.0
16	14	23	39	45	139.0	3706606.0	-36373.0	-5816905.0
16	14	23	39	45	140.0	3294691.0	-34253.0	-5817624.0
16	14	23	39	45	141.0	2586378.0	-33086.0	-5817999.0
16	14	23	39	45	142.0	1723805.0	-31336.0	-5817323.0
16	14	23	39	45	143.0	949651.0	-29809.0	-5816613.0
16	14	23	39	46	144.0	284561.0	-28057.0	-5817064.0
16	14	23	39	46	145.0	-232089.0	-27151.0	-5818079.0
16	14	23	39	46	146.0	-560017.0	-26162.0	-5817566.0
16	14	23	39	46	147.0	-684342.0	-24842.0	-5816857.0
16	14	23	39	47	148.0	-639321.0	-23211.0	-5816506.0
16	14	23	39	47	149.0	-498398.0	-21645.0	-5817476.0
16	14	23	39	47	150.0	-292002.0	-20477.0	-5817533.0
16	14	23	39	47	151.0	-50632.0	-19536.0	-5816877.0
16	14	23	39	48	173.0	-400729.0	12383.0	-5816627.0
16	14	23	39	48	174.0	-249269.0	12638.0	-5816977.0
16	14	23	39	48	175.0	-135947.0	13456.0	-5817990.0
16	14	23	39	48	176.0	-40026.0	14799.0	-5817557.0
16	14	23	39	49	177.0	55674.0	15489.0	-5816921.0
16	14	23	39	49	178.0	157304.0	16988.0	-5816774.0
16	14	23	39	49	179.0	248238.0	17913.0	-5818096.0
16	14	23	39	49	180.0	331124.0	18903.0	-5818055.0
16	14	23	39	49	181.0	440024.0	21169.0	-5817395.0
16	14	23	39	50	182.0	553051.0	22185.0	-5816831.0
16	14	23	39	50	183.0	596298.0	22944.0	-5816640.0
16	14	23	39	50	184.0	579044.0	24347.0	-5817249.0
16	14	23	39	50	185.0	531798.0	25434.0	-5816780.0
16	14	23	39	51	186.0	463299.0	26558.0	-5816479.0
16	14	23	39	51	187.0	381612.0	27172.0	-5817774.0
16	14	23	39	51	188.0	306463.0	27586.0	-5817899.0
16	14	23	39	52	189.0	254541.0	28163.0	-5817241.0
16	14	23	39	52	190.0	230322.0	28959.0	-5816609.0
16	14	23	39	52	191.0	241977.0	29368.0	-5817057.0
16	14	23	39	52	192.0	311634.0	29854.0	-5818133.0
16	14	23	39	53	193.0	430549.0	30671.0	-5817632.0
16	14	23	39	53	195.0	721779.0	31877.0	-5816465.0
16	14	23	39	53	196.0	890011.0	31687.0	-5817502.0
16	14	23	39	53	197.0	1090886.0	31484.0	-5818112.0
16	14	23	39	53	198.0	1299948.0	31664.0	-5817581.0
16	14	23	39	54	199.0	1476221.0	32281.0	-5816927.0
16	14	23	39	54	200.0	1606811.0	33046.0	-5817173.0
16	14	23	39	54	201.0	1713417.0	33291.0	-5818574.0
16	14	23	39	113	202.0	1781461.0	34071.0	-5818304.0
16	14	23	39	113	203.0	1792472.0	35348.0	-5817652.0
16	14	23	39	113	204.0	1705533.0	37001.0	-5817349.0
16	14	23	39	114	205.0	1514000.0	37299.0	-5818489.0
16	14	23	39	114	206.0	1297401.0	37536.0	-5818541.0
16	14	23	39	114	207.0	1081124.0	38606.0	-5817871.0
16	14	23	39	114	208.0	912391.0	39432.0	-5817264.0
16	14	23	39	114	209.0	810526.0	39999.0	-5817266.0
16	14	23	39	115	210.0	719966.0	41147.0	-5817661.0
16	14	23	39	115	211.0	603796.0	42026.0	-5817079.0
16	14	23	39	115	212.0	449606.0	43106.0	-5816594.0
16	14	23	39	115	213.0	257938.0	44204.0	-5817492.0
16	14	23	39	116	214.0	33594.0	45486.0	-5817876.0
16	14	23	39	116	215.0	-215805.0	47493.0	-5817194.0
16	14	23	39	116	216.0	-475487.0	49679.0	-5816589.0
16	14	23	39	116	218.0	-978141.0	53724.0	-5817208.0
16	14	23	39	117	219.0	-1149826.0	55335.0	-5816679.0
16	14	23	39	117	220.0	-1274140.0	57466.0	-5816618.0
16	14	23	39	117	221.0	-1369162.0	60289.0	-5817816.0
16	14	23	39	117	222.0	-1418857.0	62932.0	-5817466.0
16	14	23	39	118	223.0	-1426266.0	65944.0	-5816829.0
16	14	23	39	175	224.0	-1412800.0	69279.0	-5816215.0
16	14	23	39	175	225.0	-1379118.0	72844.0	-5816974.0
16	14	23	39	175	226.0	-1309479.0	77501.0	-5817837.0
16	14	23	39	175	227.0	-1209904.0	81513.0	-5817249.0
16	14	23	39	175	228.0	-1104949.0	85248.0	-5816623.0
16	14	23	39	176	229.0	-990039.0	89008.0	-5816321.0
16	14	23	39	176	230.0	-863132.0	92951.0	-5817453.0
16	14	23	39	176	231.0	-717652.0	97096.0	-5817351.0
16	14	23	39	176	232.0	-555501.0	101131.0	-5816728.0
16	14	23	39	177	233.0	-389710.0	104704.0	-5816184.0
16	14	23	39	177	234.0	-231124.0	108526.0	-5817085.0
16	14	23	39	177	235.0	-98344.0	112533.0	-5817656.0
16	14	23	39	177	236.0	1068.0	116409.0	-5817067.0
16	14	23	39	177	237.0	59258.0	119930.0	-5816452.0
16	14	23	39	178	238.0	86210.0	123634.0	-5817029.0
16	14	23	39	178	240.0	51069.0	130039.0	-5817119.0
16	14	23	39	178	241.0	11682.0	133138.0	-5816463.0
16	14	23	39	178	242.0	-29331.0	135676.0	-5816800.0
16	14	23	39	179	243.0	-67423.0	138780.0	-5817849.0
16	14	23	39	179	244.0	-93632.0	141686.0	-5817391.0
16	14	23	39	179	245.0	-88827.0	144147.0	-5816737.0
16	14	23	39	179	246.0	-56512.0	146344.0	-5816315.0
16	14	23	39	179	247.0	-12718.0	148476.0	-5817329.0
16	14	23	39	179	248.0	37523.0	150213.0	-5817667.0
16	14	23	39	180	249.0	110604.0	152706.0	-5816997.0
16	14	23	39	180	250.0	210514.0	154009.0	-5816434.0
16	14	23	39	180	251.0	338096.0	154604.0	-5816469.0
16	14	23	39	180	252.0	471246.0	154839.0	-5817083.0
16	14	23	39	181	253.0	602733.0	155659.0	-5816601.0
16	14	23	39	181	254.0	703566.0	155904.0	-5816111.0
16	14	23	39	181	255.0	763699.0	155960.0	-5817120.0
16	14	23	39	181	0.0	781008.0	156658.0	-5817534.0
16	14	23	39	182	1.0	756943.0	156359.0	-5816925.0
16	14	23	39	182	2.0	705610.0	155344.0	-5816297.0
16	14	23	39	182	3.0	614190.0	154340.0	-5816587.0
16	14	23	39	182	4.0	496051.0	153397.0	-5817711.0
16	14	23	39	183	5.0	355333.0	151998.0	-5817194.0
16	14	23	39	183	7.0	23553.0	148503.0	-5815966.0
16	14	23	39	183	8.0	-152662.0	145703.0	-5816746.0
16	14	23	39	183	9.0	-322457.0	142969.0	-5817347.0
16	14	23	39	240	10.0	-484832.0	140564.0	-5816785.0
16	14	23	39	240	11.0	-636536.0	137978.0	-5816211.0
16	14	23	39	240	12.0	-826257.0	135385.0	-5816959.0
16	14	23	39	240	13.0	-1059234.0	132428.0	-5817541.0
16	14	23	39	241	14.0	-1357212.0	129026.0	-5816917.0
16	14	23	39	241	15.0	-1594798.0	126003.0	-5816259.0
16	14	23	39	241	16.0	-1546632.0	122297.0	-5816497.0
16	14	23	39	241	17.0	-1197252.0	119383.0	-5817706.0
16	14	23	39	242	18.0	-786502.0	115418.0	-5817364.0
16	14	23	39	242	19.0	-437500.0	111884.0	-5816713.0
16	14	23	39	242	20.0	-143900.0	107779.0	-5816268.0
16	14	23	39	242	21.0	43768.0	103922.0	-5817251.0
16	14	23	39	242	22.0	70979.0	100043.0	-5817736.0
16	14	23	39	243	23.0	-14833.0	95726.0	-5817084.0
16	14	23	39	243	24.0	-113023.0	91095.0	-5816476.0
16	14	23	39	243	25.0	-228225.0	86961.0	-5816294.0
16	14	23	39	243	26.0	-341456.0	82661.0	-5817022.0
16	14	23	39	244	27.0	-422962.0	78426.0	-5816639.0
16	14	23	39	244	29.0	-566884.0	70158.0	-5816311.0
16	14	23	39	244	30.0	-589072.0	65654.0	-5816888.0
16	14	23	39	244	31.0	-539961.0	60728.0	-5816383.0
16	14	23	39	244	32.0	-460014.0	56632.0	-5816177.0
16	14	23	39	245	33.0	-353811.0	52560.0	-5817462.0
16	14	23	39	245	34.0	-209188.0	49070.0	-5817308.0
16	14	23	39	245	35.0	-23786.0	44808.0	-5816698.0
16	14	23	39	308	36.0	167722.0	40649.0	-5816081.0
16	14	23	39	309	37.0	371318.0	36916.0	-5816494.0
16	14	23	39	311	38.0	575512.0	33426.0	-5817401.0
16	14	23	39	312	39.0	742931.0	29743.0	-5816910.0
16	14	23	39	313	40.0	854149.0	26045.0	-5816290.0
16	14	23	39	313	41.0	890327.0	21972.0	-5815887.0
16	14	23	39	315	42.0	842736.0	18278.0	-5817024.0
16	14	23	39	316	43.0	714629.0	14540.0	-5817227.0
16	14	23	39	370	44.0	530838.0	10561.0	-5816596.0
16	14	23	39	370	45.0	318605.0	6794.0	-5816176.0
16	14	23	39	370	46.0	83003.0	3371.0	-5817343.0
16	14	23	39	371	47.0	-154474.0	723.0	-5817559.0
16	14	23	39	371	48.0	-389587.0	-2759.0	-5816934.0
16	14	23	39	371	49.0	-590181.0	-6034.0	-5816339.0
16	14	23	39	372	50.0	-747279.0	-8691.0	-5816758.0
16	14	23	39	372	52.0	-925734.0	-14063.0	-5817149.0
16	14	23	39	372	53.0	-951286.0	-17239.0	-5816474.0
16	14	23	39	372	74.0	80709.0	-51488.0	-5816551.0
16	14	23	39	373	75.0	226678.0	-52384.0	-5816676.0
16	14	23	39	373	76.0	402729.0	-53792.0	-5817841.0
16	14	23	39	373	77.0	586434.0	-54225.0	-5817514.0
16	14	23	39	373	78.0	751149.0	-54899.0	-5816877.0
16	14	23	39	373	79.0	894871.0	-55257.0	-5816426.0
16	14	23	39	374	80.0	1021461.0	-56042.0	-5817461.0
16	14	23	39	374	81.0	1122873.0	-56581.0	-5817963.0
16	14	23	39	374	82.0	1182678.0	-56329.0	-5817314.0
16	14	23	39	374	83.0	1215348.0	-55204.0	-5816676.0
16	14	23	39	375	84.0	1214578.0	-55323.0	-5816719.0
16	14	23	39	375	85.0	1173545.0	-55467.0	-5817805.0
16	14	23	39	375	86.0	1083776.0	-55681.0	-5817418.0
16	14	23	39	375	87.0	931221.0	-54894.0	-5816759.0
16	14	23	39	376	88.0	724785.0	-54612.0	-5816155.0
16	14	23	39	376	89.0	486858.0	-54579.0	-5816477.0
16	14	23	39	376	90.0	248873.0	-53951.0	-5817092.0
16	14	23	39	376	91.0	12274.0	-53126.0	-5816564.0
16	14	23	39	377	92.0	-234044.0	-52282.0	-5816512.0
16	14	23	39	377	93.0	-496559.0	-51616.0	-5817781.0
16	14	23	39	377	94.0	-756766.0	-50627.0	-5817397.0
16	14	23	39	377	95.0	-978138.0	-49922.0	-5816781.0
16	14	23	39	378	97.0	-1288815.0	-48086.0	-5817244.0
16	14	23	39	378	98.0	-1387472.0	-47381.0	-5817689.0
16	14	23	39	378	99.0	-1428931.0	-46585.0	-5817094.0
16	14	23	39	378	100.0	-1410169.0	-45554.0	-5816429.0
16	14	23	39	379	101.0	-1369016.0	-43904.0	-5816268.0
16	14	23	39	379	102.0	-1312312.0	-42684.0	-5817521.0
16	14	23	39	436	103.0	-1245182.0	-41098.0	-5817394.0
16	14	23	39	437	104.0	-1169505.0	-38966.0	-5816732.0
16	14	23	39	437	105.0	-1106010.0	-36410.0	-5816293.0
16	14	23	39	438	106.0	-1049456.0	-34546.0	-5817459.0
16	14	23	39	438	107.0	-1006145.0	-32757.0	-5817852.0
16	14	23	39	438	108.0	-970764.0	-31077.0	-5817206.0
16	14	23	39	438	109.0	-921186.0	-29217.0	-5816637.0
16	14	23	39	438	110.0	-855696.0	-26944.0	-5817144.0
16	14	23	39	439	111.0	-782801.0	-25470.0	-5817962.0
16	14	23	39	439	112.0	-719767.0	-23914.0	-5817417.0
16	14	23	39	439	113.0	-662991.0	-22159.0	-5816817.0
16	14	23	39	439	114.0	-566541.0	-20532.0	-5816622.0
16	14	23	39	440	115.0	-418354.0	-18939.0	-5817851.0
16	14	23	39	440	116.0	-229956.0	-17267.0	-5817754.0
16	14	23	39	440	117.0	14334.0	-15628.0	-5817151.0
16	14	23	39	440	119.0	649349.0	-12456.0	-5816880.0
16	14	23	39	440	120.0	1002049.0	-11614.0	-5817707.0
16	14	23	39	441	121.0	1341611.0	-11076.0	-5817309.0
16	14	23	39	441	122.0	1675200.0	-10526.0	-5816806.0
16	14	23	39	441	123.0	1976521.0	-9525.0	-5817362.0
16	14	23	39	442	124.0	2211263.0	-7877.0	-5817495.0
16	14	23	39	442	125.0	2406688.0	-6771.0	-5816934.0
16	14	23	39	442	126.0	2580764.0	-5560.0	-5816587.0
16	14	23	39	442	127.0	2704883.0	-2726.0	-5818081.0
16	14	23	39	443	128.0	2751940.0	-578.0	-5818222.0
16	14	23	39	443	129.0	2734979.0	-214.0	-5817664.0
16	14	23	39	443	130.0	2669084.0	853.0	-5816961.0
16	14	23	39	443	131.0	2558584.0	2044.0	-5816841.0
16	14	23	39	444	132.0	2422936.0	2661.0	-5817856.0
16	14	23	39	444	133.0	2270351.0	2740.0	-5817620.0
16	14	23	39	444	134.0	2094748.0	3701.0	-5816922.0
16	14	23	39	444	135.0	1911069.0	4442.0	-5816660.0
16	14	23	39	444	136.0	1737853.0	5256.0	-5817706.0
16	14	23	39	501	137.0	1567539.0	5696.0	-5817668.0
16	14	23	39	501	138.0	1396446.0	6100.0	-5816979.0
16	14	23	39	501	139.0	1237609.0	6652.0	-5816651.0
16	14	23	39	501	142.0	873633.0	8719.0	-5817135.0
16	14	23	39	502	143.0	780862.0	8221.0	-5816624.0
16	14	23	39	502	144.0	703513.0	8074.0	-5817434.0
16	14	23	39	502	145.0	643126.0	8374.0	-5818261.0
16	14	23	39	502	146.0	573933.0	8471.0	-5817564.0
16	14	23	39	503	147.0	493911.0	8813.0	-5816942.0
16	14	23	39	503	148.0	402819.0	9403.0	-5816394.0
16	14	23	39	503	149.0	318510.0	10211.0	-5817009.0
16	14	23	39	503	150.0	254798.0	11214.0	-5817036.0
16	14	23	39	504	151.0	193038.0	11326.0	-5816469.0
16	14	23	39	504	152.0	114735.0	10799.0	-5816816.0
16	14	23	39	504	153.0	23648.0	10541.0	-5818126.0
16	14	23	39	504	154.0	-67792.0	10346.0	-5817617.0
16	14	23	39	505	155.0	-158556.0	9392.0	-5817022.0
16	14	23	39	505	156.0	-226338.0	9154.0	-5816662.0
16	14	23	39	505	157.0	-261962.0	8941.0	-5817515.0
16	14	23	39	505	158.0	-278568.0	8676.0	-5817258.0
16	14	23	39	506	159.0	-286726.0	7759.0	-5816676.0
16	14	23	39	506	160.0	-282299.0	8044.0	-5816699.0
16	14	23	39	506	161.0	-264008.0	8001.0	-5817998.0
16	14	23	39	506	162.0	-274551.0	7726.0	-5817616.0
16	14	23	39	507	164.0	-380527.0	7519.0	-5816407.0
16	14	23	39	507	165.0	-445921.0	6028.0	-5817393.0
16	14	23	39	507	166.0	-511332.0	5037.0	-5817918.0
16	14	23	39	507	167.0	-564367.0	4408.0	-5817361.0
16	14	23	39	508	168.0	-626964.0	3886.0	-5816662.0
16	14	23	39	508	169.0	-677782.0	3378.0	-5816922.0
16	14	23	39	562	170.0	-706221.0	3169.0	-5818011.0
16	14	23	39	563	171.0	-692579.0	3186.0	-5817634.0
16	14	23	39	563	172.0	-706587.0	3264.0	-5816962.0
16	14	23	39	563	173.0	-745246.0	3097.0	-5816904.0
16	14	23	39	564	174.0	-788366.0	2298.0	-5818006.0
16	14	23	39	564	175.0	-801885.0	1552.0	-5817858.0
16	14	23	39	564	176.0	-798545.0	711.0	-5817184.0
16	14	23	39	564	177.0	-776404.0	679.0	-5816788.0
16	14	23	39	565	178.0	-709279.0	118.0	-5817859.0
16	14	23	39	565	179.0	-628247.0	-508.0	-5818262.0
16	14	23	39	565	180.0	-539672.0	-1022.0	-5817584.0
16	14	23	39	565	181.0	-459321.0	-1421.0	-5817017.0
16	14	23	39	566	182.0	-366202.0	-2170.0	-5817454.0
16	14	23	39	566	183.0	-268874.0	-2440.0	-5818544.0
16	14	23	39	566	184.0	-175282.0	-2556.0	-5818023.0
16	14	23	39	566	186.0	-8862.0	-3000.0	-5816927.0
16	14	23	39	567	187.0	58593.0	-3788.0	-5817921.0
16	14	23	39	567	188.0	123099.0	-5253.0	-5818134.0
16	14	23	39	567	189.0	187273.0	-6041.0	-5817563.0
16	14	23	39	568	190.0	242971.0	-6374.0	-5817021.0
16	14	23	39	568	191.0	294801.0	-7277.0	-5817694.0
16	14	23	39	568	192.0	347599.0	-8231.0	-5817779.0
16	14	23	39	633	193.0	392368.0	-8925.0	-5817247.0
16	14	23	39	633	194.0	443044.0	-9700.0	-5816734.0
16	14	23	39	634	195.0	495458.0	-9925.0	-5817678.0
16	14	23	39	634	196.0	547309.0	-10862.0	-5817779.0
16	14	23	39	634	197.0	589697.0	-11471.0	-5817209.0
16	14	23	39	635	198.0	610276.0	-12344.0	-5816657.0
16	14	23	39	635	199.0	616681.0	-12576.0	-5817656.0
16	14	23	39	635	200.0	609534.0	-13618.0	-5817864.0
16	14	23	39	635	201.0	578992.0	-14706.0	-5817320.0
16	14	23	39	636	202.0	520167.0	-14947.0	-5816867.0
16	14	23	39	636	203.0	461674.0	-15909.0	-5818147.0
16	14	23	39	636	204.0	392258.0	-16788.0	-5818358.0
16	14	23	39	637	205.0	314181.0	-17274.0	-5817761.0
16	14	23	39	637	206.0	227331.0	-17409.0	-5817071.0
16	14	23	39	637	207.0	158344.0	-18211.0	-5817460.0
16	14	23	39	637	209.0	78406.0	-18784.0	-5818059.0
16	14	23	39	638	210.0	66966.0	-19939.0	-5817390.0
16	14	23	39	638	211.0	35216.0	-21464.0	-5816994.0
16	14	23	39	638	212.0	-2779.0	-21500.0	-5818006.0
16	14	23	39	638	213.0	-27172.0	-21946.0	-5818381.0
16	14	23	39	639	214.0	-40660.0	-21771.0	-5817702.0
16	14	23	39	639	215.0	-30560.0	-22651.0	-5817121.0
16	14	23	39	639	216.0	-5105.0	-23144.0	-5817375.0
16	14	23	39	639	217.0	55099.0	-22414.0	-5818782.0
16	14	23	39	640	218.0	161028.0	-21508.0	-5818351.0
16	14	23	39	640	219.0	283254.0	-21283.0	-5817794.0
16	14	23	39	640	220.0	410315.0	-21297.0	-5817317.0
16	14	23	39	640	221.0	546079.0	-21569.0	-5818169.0
16	14	23	39	641	222.0	672888.0	-21072.0	-5818062.0
16	14	23	39	641	223.0	743471.0	-21033.0	-5817484.0
16	14	23	39	641	224.0	799009.0	-21187.0	-5817200.0
16	14	23	39	642	225.0	831654.0	-20935.0	-5818068.0
16	14	23	39	642	226.0	858250.0	-20537.0	-5817766.0
16	14	23	39	642	227.0	877496.0	-20541.0	-5817142.0
16	14	23	39	643	228.0	908967.0	-20247.0	-5816914.0
16	14	23	39	643	229.0	964352.0	-20447.0	-5817787.0
16	14	23	39	643	231.0	1063926.0	-20001.0	-5816862.0
16	14	23	39	643	232.0	1081065.0	-20220.0	-5817279.0
16	14	23	39	644	233.0	1067055.0	-21119.0	-5818616.0
16	14	23	39	644	234.0	1013005.0	-21280.0	-5818132.0
16	14	23	39	644	235.0	903148.0	-21217.0	-5817500.0
16	14	23	39	644	236.0	734869.0	-20806.0	-5817279.0
16	14	23	39	645	237.0	532846.0	-19859.0	-5818537.0
16	14	23	39	696	238.0	306317.0	-19559.0	-5818402.0
16	14	23	39	697	239.0	66043.0	-18466.0	-5817756.0
16	14	23	39	697	240.0	-170173.0	-17228.0	-5817233.0
16	14	23	39	697	241.0	-379443.0	-16473.0	-5818259.0
16	14	23	39	697	242.0	-585311.0	-15731.0	-5818525.0
16	14	23	39	698	243.0	-808473.0	-15309.0	-5817885.0
16	14	23	39	698	244.0	-984452.0	-14595.0	-5817167.0
16	14	23	39	698	245.0	-1081105.0	-13719.0	-5817290.0
16	14	23	39	761	246.0	-1102974.0	-13656.0	-5818421.0
16	14	23	39	761	247.0	-1058116.0	-13263.0	-5818137.0
16	14	23	39	761	248.0	-911893.0	-12984.0	-5817506.0
16	14	23	39	762	249.0	-695278.0	-12344.0	-5817380.0
16	14	23	39	762	250.0	-489507.0	-11693.0	-5818467.0
16	14	23	39	762	251.0	-297969.0	-11697.0	-5818363.0
16	14	23	39	762	252.0	-184187.0	-11102.0	-5817681.0
16	14	23	39	762	254.0	-416241.0	-10417.0	-5818183.0
16	14	23	39	763	255.0	-663867.0	-10565.0	-5818477.0
16	14	23	39	763	0.0	-902591.0	-10651.0	-5817791.0
16	14	23	39	763	1.0	-1055006.0	-10284.0	-5817185.0
16	14	23	39	763	2.0	-1137108.0	-8902.0	-5817002.0
16	14	23	39	764	3.0	-1179396.0	-8139.0	-5817709.0
16	14	23	39	764	4.0	-1150127.0	-7801.0	-5817290.0
16	14	23	39	764	5.0	-1025956.0	-7928.0	-5816812.0
16	14	23	39	764	20.0	-1131646.0	-749.0	-5816927.0
16	14	23	39	765	21.0	-733822.0	-942.0	-5816490.0
16	14	23	39	765	22.0	-352582.0	-1318.0	-5817567.0
16	14	23	39	765	23.0	-49097.0	-573.0	-5817678.0
16	14	23	39	765	24.0	177883.0	-371.0	-5817156.0
16	14	23	39	766	25.0	294178.0	-303.0	-5816537.0
16	14	23	39	766	26.0	300526.0	36.0	-5817179.0
16	14	23	39	766	27.0	247328.0	326.0	-5818073.0
16	14	23	39	766	28.0	140348.0	928.0	-5817619.0
16	14	23	39	767	29.0	5138.0	2800.0	-5816931.0
16	14	23	39	767	30.0	-166580.0	3271.0	-5817044.0
16	14	23	39	767	31.0	-395543.0	3591.0	-5818112.0
16	14	23	39	768	32.0	-629726.0	4572.0	-5817782.0
16	14	23	39	768	33.0	-801381.0	5311.0	-5817074.0
16	14	23	39	768	34.0	-898694.0	5696.0	-5816657.0
16	14	23	39	768	35.0	-927041.0	5588.0	-5817614.0
16	14	23	39	769	36.0	-873711.0	5924.0	-5817952.0
16	14	23	39	769	37.0	-780574.0	6570.0	-5817317.0
16	14	23	39	769	38.0	-684702.0	7570.0	-5816736.0
16	14	23	39	769	39.0	-567576.0	8431.0	-5816834.0
16	14	23	39	770	40.0	-422621.0	8972.0	-5818184.0
16	14	23	39	770	41.0	-284946.0	9414.0	-5817818.0
16	14	23	39	770	43.0	-57496.0	9541.0	-5816750.0
16	14	23	39	770	44.0	60570.0	9094.0	-5817514.0
16	14	23	39	771	45.0	161005.0	9250.0	-5817519.0
16	14	23	39	771	46.0	251187.0	9444.0	-5816964.0
16	14	23	39	824	47.0	312063.0	9828.0	-5816586.0
16	14	23	39	824	48.0	360517.0	9929.0	-5817403.0
16	14	23	39	824	49.0	396028.0	10219.0	-5817162.0
16	14	23	39	825	50.0	415793.0	10329.0	-5816567.0
16	14	23	39	825	51.0	429323.0	11773.0	-5816490.0
16	14	23	39	825	52.0	444324.0	12821.0	-5817834.0
16	14	23	39	825	53.0	489235.0	12503.0	-5817541.0
16	14	23	39	826	54.0	553151.0	12508.0	-5816974.0
16	14	23	39	826	55.0	623000.0	12223.0	-5816347.0
16	14	23	39	826	56.0	711274.0	12088.0	-5817202.0
16	14	23	39	827	57.0	789949.0	12302.0	-5817634.0
16	14	23	39	827	58.0	835629.0	12371.0	-5817075.0
16	14	23	39	827	59.0	850363.0	12486.0	-5816448.0
16	14	23	39	827	60.0	870353.0	12389.0	-5817174.0
16	14	23	39	828	61.0	910298.0	11876.0	-5817916.0
16	14	23	39	828	62.0	924549.0	12021.0	-5817434.0
16	14	23	39	828	63.0	902339.0	12216.0	-5816742.0
16	14	23	39	828	65.0	788762.0	12124.0	-5818069.0
16	14	23	39	829	66.0	651971.0	11411.0	-5817796.0
16	14	23	39	829	67.0	503463.0	10145.0	-5817049.0
16	14	23	39	829	68.0	357368.0	9784.0	-5816544.0
16	14	23	39	829	69.0	209298.0	10074.0	-5817390.0
16	14	23	39	830	70.0	49855.0	10128.0	-5817997.0
16	14	23	39	830	71.0	-76284.0	10106.0	-5817324.0
16	14	23	39	886	72.0	-159921.0	9896.0	-5816739.0
16	14	23	39	887	73.0	-224266.0	10174.0	-5816614.0
16	14	23	39	887	74.0	-262676.0	10994.0	-5817744.0
16	14	23	39	887	75.0	-283642.0	10853.0	-5817356.0
16	14	23	39	888	76.0	-318662.0	10524.0	-5816774.0
16	14	23	39	888	77.0	-355446.0	10623.0	-5816408.0
16	14	23	39	888	78.0	-367932.0	10146.0	-5817275.0
16	14	23	39	889	79.0	-350781.0	10053.0	-5817019.0
16	14	23	39	889	80.0	-350144.0	10081.0	-5816498.0
16	14	23	39	889	81.0	-308627.0	10103.0	-5817194.0
16	14	23	39	889	82.0	-250966.0	9764.0	-5818086.0
16	14	23	39	890	83.0	-198527.0	9635.0	-5817460.0
16	14	23	39	890	84.0	-157824.0	9817.0	-5816900.0
16	14	23	39	890	85.0	-147058.0	9842.0	-5816399.0
16	14	23	39	890	86.0	-143861.0	10143.0	-5817428.0
16	14	23	39	891	88.0	-215647.0	12419.0	-5816898.0
16	14	23	39	891	89.0	-275589.0	12607.0	-5816292.0
16	14	23	39	891	90.0	-367721.0	13601.0	-5817277.0
16	14	23	39	891	91.0	-454324.0	14876.0	-5817834.0
16	14	23	39	892	92.0	-530266.0	16736.0	-5817265.0
16	14	23	39	892	93.0	-571915.0	18393.0	-5816577.0
16	14	23	39	892	94.0	-577054.0	20013.0	-5816952.0
16	14	23	39	892	95.0	-572087.0	22505.0	-5817694.0
16	14	23	39	893	96.0	-602415.0	25983.0	-5817206.0
16	14	23	39	893	97.0	-621744.0	28466.0	-5816488.0
16	14	23	39	893	98.0	-633209.0	31571.0	-5816335.0
16	14	23	39	893	99.0	-591386.0	34813.0	-5817610.0
16	14	23	39	949	100.0	-510652.0	38063.0	-5817573.0
16	14	23	39	950	101.0	-442716.0	41352.0	-5816901.0
16	14	23	39	950	102.0	-400366.0	44694.0	-5816335.0
16	14	23	39	950	103.0	-368128.0	48311.0	-5816376.0
16	14	23	39	951	104.0	-383013.0	51873.0	-5817349.0
16	14	23	39	951	105.0	-402414.0	55936.0	-5816839.0
16	14	23	39	951	106.0	-358611.0	60074.0	-5816266.0
16	14	23	39	952	107.0	-280696.0	64345.0	-5816222.0
16	14	23	39	952	108.0	-196691.0	67440.0	-5817537.0
16	14	23	39	952	110.0	24111.0	75538.0	-5816609.0
16	14	23	39	952	111.0	74716.0	78033.0	-5816011.0
16	14	23	39	953	112.0	91812.0	80691.0	-5817006.0
16	14	23	39	953	113.0	121981.0	83747.0	-5817579.0
16	14	23	39	953	114.0	134334.0	86881.0	-5817061.0
16	14	23	39	953	115.0	85926.0	90209.0	-5816329.0
16	14	23	39	954	116.0	21051.0	93304.0	-5816195.0
16	14	23	39	954	117.0	-22617.0	96543.0	-5817516.0
16	14	23	39	954	118.0	-71318.0	99515.0	-5817468.0
16	14	23	39	954	119.0	-98101.0	102600.0	-5816755.0
16	14	23	39	955	120.0	-132117.0	104114.0	-5816337.0
16	14	23	39	955	121.0	-113544.0	106200.0	-5817356.0
16	14	23	39	955	122.0	-76276.0	108156.0	-5817710.0
16	14	23	39	956	123.0	-28197.0	109755.0	-5817031.0
16	14	23	39	956	124.0	50180.0	111098.0	-5816492.0
16	14	23	39	956	125.0	148778.0	111954.0	-5817026.0
16	14	23	39	956	126.0	288653.0	112865.0	-5818249.0
16	14	23	39	957	127.0	452241.0	113885.0	-5817709.0
16	14	23	39	957	128.0	595138.0	114131.0	-5817133.0
16	14	23	39	957	129.0	715851.0	114148.0	-5816644.0
16	14	23	39	957	130.0	823059.0	114006.0	-5817397.0
16	14	23	39	958	131.0	906255.0	113565.0	-5817327.0
16	14	23	39	958	133.0	959846.0	112088.0	-5816298.0
16	14	23	39	958	134.0	916124.0	110200.0	-5816984.0
16	14	23	39	959	135.0	822089.0	108428.0	-5816777.0
16	14	23	39	959	136.0	712508.0	106988.0	-5816202.0
16	14	23	39	959	137.0	601669.0	105338.0	-5816523.0
16	14	23	39	960	138.0	414294.0	103388.0	-5817694.0
16	14	23	40	9	139.0	166348.0	101104.0	-5817157.0
16	14	23	40	9	140.0	-92713.0	99070.0	-5816504.0
16	14	23	40	10	141.0	-415981.0	97374.0	-5816459.0
16	14	23	40	10	142.0	-632783.0	94588.0	-5817547.0
16	14	23	40	10	143.0	-552183.0	91953.0	-5817107.0
16	14	23	40	11	144.0	-249508.0	88981.0	-5816532.0
16	14	23	40	11	145.0	117028.0	85853.0	-5816136.0
16	14	23	40	11	146.0	456486.0	82731.0	-5817474.0
16	14	23	40	12	147.0	752390.0	79423.0	-5817671.0
16	14	23	40	12	148.0	954720.0	75547.0	-5817126.0
16	14	23	40	12	149.0	961305.0	72345.0	-5816451.0
16	14	23	40	12	150.0	783223.0	68772.0	-5816524.0
16	14	23	40	13	151.0	474229.0	64596.0	-5817499.0
16	14	23	40	13	152.0	169633.0	60742.0	-5817159.0
16	14	23	40	13	153.0	-112762.0	56983.0	-5816439.0
16	14	23	40	14	155.0	-494774.0	48191.0	-5817240.0
16	14	23	40	14	156.0	-642850.0	43432.0	-5817217.0
16	14	23	40	14	157.0	-732303.0	38644.0	-5816524.0
16	14	23	40	14	158.0	-767392.0	34395.0	-5816150.0
16	14	23	40	15	159.0	-782172.0	30548.0	-5817203.0
16	14	23	40	15	160.0	-792432.0	26725.0	-5817572.0
16	14	23	40	67	161.0	-780276.0	22869.0	-5816864.0
16	14	23	40	68	162.0	-724340.0	18660.0	-5816287.0
16	14	23	40	68	163.0	-674342.0	15219.0	-5815976.0
16	14	23	40	69	164.0	-668139.0	10974.0	-5817212.0
16	14	23	40	69	165.0	-645356.0	7265.0	-5817026.0
16	14	23	40	69	166.0	-623675.0	3398.0	-5816440.0
16	14	23	40	70	167.0	-581006.0	-703.0	-5815977.0
16	14	23	40	70	168.0	-545816.0	-4957.0	-5817290.0
16	14	23	40	71	169.0	-527851.0	-8857.0	-5817512.0
16	14	23	40	71	170.0	-507609.0	-12168.0	-5816924.0
16	14	23	40	71	171.0	-468822.0	-15372.0	-5816289.0
16	14	23	40	72	172.0	-429933.0	-18913.0	-5816876.0
16	14	23	40	72	173.0	-345561.0	-22582.0	-5817458.0
16	14	23	40	72	174.0	-273492.0	-25856.0	-5816925.0
16	14	23	40	73	175.0	-204419.0	-28804.0	-5816262.0
16	14	23	40	73	178.0	115538.0	-38428.0	-5817298.0
16	14	23	40	73	179.0	201259.0	-41774.0	-5816579.0
16	14	23	40	74	180.0	297563.0	-44614.0	-5816154.0
16	14	23	40	74	181.0	372921.0	-47129.0	-5817225.0
16	14	23	40	74	182.0	446231.0	-49595.0	-5817601.0
16	14	23	40	74	183.0	495926.0	-51744.0	-5816919.0
16	14	23	40	75	184.0	491249.0	-53851.0	-5816413.0
16	14	23	40	75	185.0	451805.0	-55209.0	-5817219.0
16	14	23	40	75	186.0	405973.0	-56426.0	-5817772.0
16	14	23	40	76	187.0	321018.0	-58142.0	-5817098.0
16	14	23	40	76	188.0	201058.0	-59687.0	-5816554.0
16	14	23	40	76	189.0	76782.0	-61056.0	-5817230.0
16	14	23	40	123	190.0	-24264.0	-62707.0	-5817902.0
16	14	23	40	123	191.0	-160711.0	-63827.0	-5817252.0
16	14	23	40	123	192.0	-279871.0	-64658.0	-5816636.0
16	14	23	40	124	193.0	-386903.0	-66092.0	-5816232.0
16	14	23	40	124	194.0	-492639.0	-67590.0	-5817456.0
16	14	23	40	124	195.0	-536369.0	-68704.0	-5817439.0
16	14	23	40	125	196.0	-584427.0	-69352.0	-5816775.0
16	14	23	40	125	197.0	-520874.0	-70314.0	-5816136.0
16	14	23	40	125	198.0	-393104.0	-71171.0	-5816324.0
16	14	23	40	125	200.0	-155276.0	-72623.0	-5816072.0
16	14	23	40	126	201.0	-89179.0	-74015.0	-5815492.0
16	14	23	40	126	202.0	-6717.0	-74935.0	-5816109.0
16	14	23	40	126	203.0	17853.0	-75044.0	-5816311.0
16	14	23	40	127	204.0	29065.0	-75171.0	-5815822.0
16	14	23	40	127	205.0	29172.0	-75792.0	-5816519.0
16	14	23	40	127	206.0	21269.0	-75298.0	-5817405.0
16	14	23	40	127	207.0	19798.0	-74884.0	-5816754.0
16	14	23	40	128	208.0	25074.0	-74797.0	-5816168.0
16	14	23	40	128	209.0	33547.0	-74959.0	-5815714.0
16	14	23	40	128	210.0	52075.0	-75179.0	-5816390.0
16	14	23	40	128	211.0	33094.0	-74962.0	-5816111.0
16	14	23	40	129	212.0	34028.0	-74881.0	-5815504.0
16	14	23	40	129	213.0	36080.0	-74444.0	-5815188.0
16	14	23	40	129	214.0	198.0	-73932.0	-5816066.0
16	14	23	40	130	215.0	-27620.0	-73321.0	-5815766.0
16	14	23	40	130	222.0	-239723.0	-67939.0	-5816636.0
16	14	23	40	130	223.0	-235156.0	-66981.0	-5815987.0
16	14	23	40	130	224.0	-225346.0	-67126.0	-5815372.0
16	14	23	40	131	225.0	-230745.0	-65984.0	-5815682.0
16	14	23	40	131	226.0	-206650.0	-64461.0	-5816070.0
16	14	23	40	131	227.0	-165286.0	-62792.0	-5815482.0
16	14	23	40	132	228.0	-179557.0	-61423.0	-5814878.0
16	14	23	40	249	229.0	-173941.0	-59687.0	-5815650.0
16	14	23	40	250	230.0	-135544.0	-57726.0	-5816259.0
16	14	23	40	250	231.0	-122607.0	-54927.0	-5815656.0
16	14	23	40	250	232.0	-125817.0	-52609.0	-5815002.0
16	14	23	40	251	233.0	-126070.0	-50859.0	-5815115.0
16	14	23	40	251	234.0	-142608.0	-48997.0	-5816385.0
16	14	23	40	251	235.0	-198252.0	-46818.0	-5816037.0
16	14	23	40	252	236.0	-239044.0	-44748.0	-5815367.0
16	14	23	40	252	237.0	-280006.0	-43092.0	-5815313.0
16	14	23	40	252	238.0	-348367.0	-41143.0	-5816779.0
16	14	23	40	253	239.0	-385899.0	-38981.0	-5816644.0
16	14	23	40	253	240.0	-406341.0	-36578.0	-5815987.0
16	14	23	40	253	241.0	-433165.0	-34328.0	-5815399.0
16	14	23	40	254	242.0	-438524.0	-32511.0	-5815854.0
16	14	23	40	254	243.0	-449066.0	-30040.0	-5816597.0
16	14	23	40	254	245.0	-467510.0	-25788.0	-5815394.0
16	14	23	40	254	246.0	-475357.0	-24435.0	-5815268.0
16	14	23	40	255	247.0	-484581.0	-22976.0	-5816452.0
16	14	23	40	255	248.0	-480437.0	-20357.0	-5816216.0
16	14	23	40	255	249.0	-444306.0	-18274.0	-5815566.0
16	14	23	40	256	250.0	-414402.0	-16537.0	-5815254.0
16	14	23	40	256	251.0	-362962.0	-14582.0	-5816441.0
16	14	23	40	256	252.0	-305122.0	-12436.0	-5816505.0
16	14	23	40	257	253.0	-250728.0	-10033.0	-5815857.0
16	14	23	40	257	254.0	-176492.0	-8146.0	-5815226.0
16	14	23	40	257	255.0	-86498.0	-6503.0	-5815423.0
16	14	23	40	258	0.0	-23577.0	-4879.0	-5815879.0
16	14	23	40	258	1.0	54803.0	-2755.0	-5815346.0
16	14	23	40	258	2.0	162296.0	-1582.0	-5814746.0
16	14	23	40	259	3.0	251899.0	-690.0	-5815181.0
16	14	23	40	259	4.0	342993.0	975.0	-5815548.0
16	14	23	40	259	5.0	386374.0	2448.0	-5814994.0
16	14	23	40	259	6.0	404946.0	4411.0	-5814494.0
16	14	23	40	260	7.0	441989.0	6177.0	-5815545.0
16	14	23	40	260	8.0	421098.0	7021.0	-5815764.0
16	14	23	40	260	9.0	368674.0	7844.0	-5815157.0
16	14	23	40	261	11.0	201364.0	9163.0	-5815686.0
16	14	23	40	261	12.0	121678.0	9941.0	-5815640.0
16	14	23	40	261	13.0	79266.0	9436.0	-5815056.0
16	14	23	40	262	14.0	31025.0	9796.0	-5814635.0
16	14	23	40	262	15.0	-14962.0	10174.0	-5815887.0
16	14	23	40	263	16.0	-69196.0	10533.0	-5815915.0
16	14	23	40	263	17.0	-145142.0	11179.0	-5815313.0
16	14	23	40	263	18.0	-208295.0	11684.0	-5814600.0
16	14	23	40	264	19.0	-263077.0	12326.0	-5814958.0
16	14	23	40	264	20.0	-333431.0	12988.0	-5815942.0
16	14	23	40	264	21.0	-395256.0	13193.0	-5815541.0
16	14	23	40	265	22.0	-444582.0	12945.0	-5814838.0
16	14	23	40	265	23.0	-495212.0	13024.0	-5814498.0
16	14	23	40	266	24.0	-536082.0	12889.0	-5815684.0
16	14	23	40	266	25.0	-580356.0	12495.0	-5815982.0
16	14	23	40	266	26.0	-636730.0	11824.0	-5815280.0
16	14	23	40	349	27.0	-681275.0	11333.0	-5814781.0
16	14	23	40	349	28.0	-711161.0	10708.0	-5815557.0
16	14	23	40	349	29.0	-751440.0	10528.0	-5816322.0
16	14	23	40	350	30.0	-780996.0	10507.0	-5815683.0
16	14	23	40	350	31.0	-768124.0	10334.0	-5815109.0
16	14	23	40	350	32.0	-725251.0	9708.0	-5814834.0
16	14	23	40	350	34.0	-522536.0	8202.0	-5815926.0
16	14	23	40	351	35.0	-384808.0	6875.0	-5815346.0
16	14	23	40	351	36.0	-261222.0	5266.0	-5814671.0
16	14	23	40	351	37.0	-120757.0	4021.0	-5815206.0
16	14	23	40	352	38.0	28993.0	3588.0	-5816202.0
16	14	23	40	352	39.0	159493.0	2757.0	-5815778.0
16	14	23	40	352	40.0	258224.0	1660.0	-5815137.0
16	14	23	40	353	41.0	344894.0	1008.0	-5815129.0
16	14	23	40	353	42.0	422899.0	1096.0	-5816517.0
16	14	23	40	353	43.0	480342.0	1304.0	-5816427.0
16	14	23	40	353	44.0	538026.0	677.0	-5815768.0
16	14	23	40	354	45.0	590587.0	-349.0	-5815596.0
16	14	23	40	354	46.0	630597.0	-1220.0	-5816726.0
16	14	23	40	354	47.0	650964.0	-2659.0	-5816593.0
16	14	23	40	354	48.0	663428.0	-3524.0	-5815908.0
16	14	23	40	355	49.0	662691.0	-4264.0	-5815402.0
16	14	23	40	355	50.0	665258.0	-4929.0	-5816185.0
16	14	23	40	355	51.0	661355.0	-5716.0	-5816708.0
16	14	23	40	356	52.0	657071.0	-6407.0	-5816081.0
16	14	23	40	356	53.0	646780.0	-7024.0	-5815451.0
16	14	23	40	356	54.0	637107.0	-7891.0	-5815326.0
16	14	23	40	356	56.0	542148.0	-10168.0	-5816406.0
16	14	23	40	357	57.0	468488.0	-11623.0	-5815776.0
16	14	23	40	357	58.0	391585.0	-13141.0	-5815482.0
16	14	23	40	357	59.0	320763.0	-14147.0	-5816693.0
16	14	23	40	357	60.0	262261.0	-14777.0	-5816636.0
16	14	23	40	358	61.0	209787.0	-15514.0	-5815993.0
16	14	23	40	358	62.0	164789.0	-16345.0	-5815417.0
16	14	23	40	358	63.0	156849.0	-16749.0	-5816139.0
16	14	23	40	359	64.0	156088.0	-17219.0	-5816952.0
16	14	23	40	359	65.0	146107.0	-16792.0	-5816393.0
16	14	23	40	359	66.0	136186.0	-16974.0	-5815782.0
16	14	23	40	359	67.0	127993.0	-18001.0	-5815365.0
16	14	23	40	360	68.0	116396.0	-18841.0	-5816671.0
16	14	23	40	360	69.0	112809.0	-19291.0	-5816912.0
16	14	23	40	360	70.0	109921.0	-19685.0	-5816307.0
16	14	23	40	360	71.0	106518.0	-19971.0	-5815683.0
16	14	23	40	361	72.0	86436.0	-21029.0	-5816262.0
16	14	23	40	361	73.0	59181.0	-21596.0	-5817104.0
16	14	23	40	361	74.0	48818.0	-21922.0	-5816612.0
16	14	23	40	362	75.0	44634.0	-22374.0	-5816017.0
16	14	23	40	362	76.0	43828.0	-22769.0	-5816382.0
16	14	23	40	362	77.0	43759.0	-23049.0	-5817209.0
16	14	23	40	363	79.0	63650.0	-23576.0	-5816023.0
16	14	23	40	363	80.0	84636.0	-25232.0	-5816199.0
16	14	23	40	363	81.0	103735.0	-25981.0	-5817576.0
16	14	23	40	364	82.0	117341.0	-25914.0	-5817236.0
16	14	23	40	364	83.0	116053.0	-26021.0	-5816517.0
16	14	23	40	364	84.0	101637.0	-26031.0	-5815979.0
16	14	23	40	438	85.0	67343.0	-26025.0	-5816787.0
16	14	23	40	439	86.0	19361.0	-25887.0	-5817555.0
16	14	23	40	439	87.0	-42755.0	-25381.0	-5816911.0
16	14	23	40	439	88.0	-104411.0	-25116.0	-5816331.0
16	14	23	40	440	89.0	-160908.0	-25596.0	-5816000.0
16	14	23	40	440	90.0	-208267.0	-25842.0	-5817282.0
16	14	23	40	440	91.0	-240508.0	-25501.0	-5817229.0
16	14	23	40	440	92.0	-267586.0	-25021.0	-5816627.0
16	14	23	40	441	93.0	-282512.0	-24821.0	-5816161.0
16	14	23	40	441	94.0	-278453.0	-24837.0	-5817234.0
16	14	23	40	441	95.0	-261394.0	-24469.0	-5817340.0
16	14	23	40	441	96.0	-222563.0	-23914.0	-5816784.0
16	14	23	40	442	97.0	-153386.0	-23977.0	-5816179.0
16	14	23	40	442	98.0	-51217.0	-23817.0	-5817057.0
16	14	23	40	442	99.0	77091.0	-23361.0	-5817928.0
16	14	23	40	443	101.0	337300.0	-23006.0	-5816761.0
16	14	23	40	443	102.0	419540.0	-23667.0	-5816460.0
16	14	23	40	443	103.0	451216.0	-23892.0	-5817525.0
16	14	23	40	443	104.0	337808.0	-23462.0	-5817643.0
16	14	23	40	444	105.0	97177.0	-22986.0	-5816922.0
16	14	23	40	444	106.0	-160079.0	-22341.0	-5816434.0
16	14	23	40	444	107.0	-384458.0	-22257.0	-5817147.0
16	14	23	40	445	108.0	-517402.0	-21878.0	-5817612.0
16	14	23	40	445	109.0	-558831.0	-20743.0	-5816937.0
16	14	23	40	445	110.0	-504162.0	-19453.0	-5816406.0
16	14	23	40	445	111.0	-344897.0	-19299.0	-5817144.0
16	14	23	40	446	112.0	-83804.0	-18984.0	-5818142.0
16	14	23	40	446	113.0	242224.0	-18796.0	-5817556.0
16	14	23	40	446	114.0	584127.0	-18412.0	-5817029.0
16	14	23	40	446	115.0	927269.0	-17606.0	-5816349.0
16	14	23	40	447	116.0	1223731.0	-17404.0	-5816931.0
16	14	23	40	447	117.0	1346564.0	-16930.0	-5817788.0
16	14	23	40	447	118.0	1200325.0	-16334.0	-5817287.0
16	14	23	40	448	119.0	826622.0	-15973.0	-5816534.0
16	14	23	40	448	120.0	362419.0	-15557.0	-5816582.0
16	14	23	40	448	121.0	-14609.0	-15043.0	-5817597.0
16	14	23	40	449	122.0	-187589.0	-13996.0	-5817257.0
16	14	23	40	449	124.0	-7686.0	-13434.0	-5816790.0
16	14	23	40	449	125.0	191695.0	-13326.0	-5818197.0
16	14	23	40	450	126.0	403073.0	-12776.0	-5818022.0
16	14	23	40	450	127.0	573643.0	-11616.0	-5817328.0
16	14	23	40	450	128.0	696425.0	-11078.0	-5816877.0
16	14	23	40	451	129.0	759331.0	-10324.0	-5817845.0
16	14	23	40	534	130.0	750164.0	-9756.0	-5818340.0
16	14	23	40	534	131.0	633939.0	-8422.0	-5817619.0
16	14	23	40	534	132.0	408376.0	-6203.0	-5816979.0
16	14	23	40	535	133.0	94141.0	-5192.0	-5816992.0
16	14	23	40	535	134.0	-242186.0	-4422.0	-5818181.0
16	14	23	40	535	135.0	-536914.0	-3889.0	-5817753.0
16	14	23	40	535	136.0	-770701.0	-3910.0	-5817126.0
16	14	23	40	536	137.0	-891928.0	-3166.0	-5816517.0
16	14	23	40	536	138.0	-890323.0	-2867.0	-5817076.0
16	14	23	40	536	139.0	-771839.0	-2316.0	-5817401.0
16	14	23	40	537	140.0	-571119.0	-1666.0	-5816882.0
16	14	23	40	537	141.0	-353089.0	-811.0	-5816566.0
16	14	23	40	537	142.0	-172239.0	294.0	-5817486.0
16	14	23	40	537	143.0	-49888.0	639.0	-5817236.0
16	14	23	40	538	144.0	2118.0	1996.0	-5816648.0
16	14	23	40	538	146.0	-71318.0	3419.0	-5818102.0
16	14	23	40	538	147.0	-175356.0	3810.0	-5817539.0
16	14	23	40	538	148.0	-297194.0	3306.0	-5816936.0
16	14	23	40	539	149.0	-412780.0	3478.0	-5816456.0
16	14	23	40	539	150.0	-517611.0	4244.0	-5817562.0
16	14	23	40	539	151.0	-598567.0	4778.0	-5817548.0
16	14	23	40	539	152.0	-650569.0	5343.0	-5816964.0
16	14	23	40	540	153.0	-680179.0	5900.0	-5816283.0
16	14	23	40	540	154.0	-702129.0	7241.0	-5816847.0
16	14	23	40	540	155.0	-724181.0	8824.0	-5817599.0
16	14	23	40	541	156.0	-738776.0	8876.0	-5817123.0
16	14	23	40	541	157.0	-724625.0	8893.0	-5816456.0
16	14	23	40	541	158.0	-677664.0	9281.0	-5816568.0
16	14	23	40	542	159.0	-591631.0	9226.0	-5817970.0
16	14	23	40	542	160.0	-498729.0	10248.0	-5817805.0
16	14	23	40	542	161.0	-417261.0	10763.0	-5817121.0
16	14	23	40	542	162.0	-319467.0	10828.0	-5816626.0
16	14	23	40	543	163.0	-201327.0	11328.0	-5817311.0
16	14	23	40	543	164.0	-81099.0	11726.0	-5818008.0
16	14	23	40	543	165.0	41304.0	12174.0	-5817377.0
16	14	23	40	544	166.0	162729.0	12894.0	-5816787.0
16	14	23	40	544	167.0	287771.0	13786.0	-5816571.0
16	14	23	40	544	169.0	585773.0	14180.0	-5817745.0
16	14	23	40	544	170.0	762533.0	13170.0	-5817143.0
16	14	23	40	545	171.0	939691.0	13139.0	-5816567.0
16	14	23	40	545	172.0	1116856.0	14151.0	-5817308.0
16	14	23	40	545	173.0	1265942.0	14548.0	-5817577.0
16	14	23	40	546	174.0	1359477.0	14811.0	-5817025.0
16	14	23	40	632	175.0	1389480.0	15429.0	-5816684.0
16	14	23	40	632	176.0	1371598.0	15723.0	-5817972.0
16	14	23	40	632	177.0	1314245.0	16976.0	-5817890.0
16	14	23	40	632	178.0	1199864.0	16909.0	-5817281.0
16	14	23	40	633	179.0	1042073.0	17025.0	-5816566.0
16	14	23	40	633	180.0	860273.0	17093.0	-5817332.0
16	14	23	40	633	181.0	646138.0	17455.0	-5818140.0
16	14	23	40	634	182.0	457056.0	18268.0	-5817597.0
16	14	23	40	634	183.0	313904.0	17950.0	-5816890.0
16	14	23	40	634	184.0	195505.0	17833.0	-5816805.0
16	14	23	40	634	185.0	78322.0	18069.0	-5817909.0
16	14	23	40	635	186.0	-44252.0	17749.0	-5817689.0
16	14	23	40	635	187.0	-167946.0	17825.0	-5817027.0
16	14	23	40	635	188.0	-284837.0	18114.0	-5816807.0
16	14	23	40	635	189.0	-401310.0	17944.0	-5818062.0
16	14	23	40	636	191.0	-550446.0	19219.0	-5817392.0
16	14	23	40	636	192.0	-569284.0	19001.0	-5816952.0
16	14	23	40	636	193.0	-572605.0	19099.0	-5818069.0
16	14	23	40	636	194.0	-553295.0	20074.0	-5818672.0
16	14	23	40	637	195.0	-527623.0	20948.0	-5818003.0
16	14	23	40	637	196.0	-516527.0	21867.0	-5817437.0
16	14	23	40	637	197.0	-514709.0	23279.0	-5816872.0
16	14	23	40	638	198.0	-511079.0	24498.0	-5817469.0
16	14	23	40	638	199.0	-506932.0	26358.0	-5817618.0
16	14	23	40	638	200.0	-499724.0	28393.0	-5817060.0
16	14	23	40	638	201.0	-498499.0	29965.0	-5817309.0
16	14	23	40	639	202.0	-501479.0	31806.0	-5818359.0
16	14	23	40	639	203.0	-511689.0	34014.0	-5817871.0
16	14	23	40	733	204.0	-515471.0	36369.0	-5817291.0
16	14	23	40	734	205.0	-493758.0	38758.0	-5816856.0
16	14	23	40	734	206.0	-445177.0	41473.0	-5817646.0
16	14	23	40	734	207.0	-376609.0	44323.0	-5817421.0
16	14	23	40	735	208.0	-298371.0	47574.0	-5816836.0
16	14	23	40	735	209.0	-213939.0	50363.0	-5816472.0
16	14	23	40	735	210.0	-114997.0	53262.0	-5817136.0
16	14	23	40	735	211.0	-24897.0	56421.0	-5816741.0
16	14	23	40	736	212.0	63756.0	59333.0	-5816138.0
16	14	23	40	736	214.0	260460.0	65951.0	-5816632.0
16	14	23	40	736	215.0	347449.0	67998.0	-5816199.0
16	14	23	40	736	216.0	410587.0	71731.0	-5815801.0
16	14	23	40	737	217.0	453643.0	76056.0	-5817047.0
16	14	23	40	737	218.0	484311.0	79846.0	-5817460.0
16	14	23	40	737	219.0	499349.0	82960.0	-5816822.0
16	14	23	40	738	236.0	76468.0	115578.0	-5817279.0
16	14	23	40	738	237.0	90362.0	114980.0	-5816615.0
16	14	23	40	738	238.0	101718.0	114105.0	-5816271.0
16	14	23	40	739	239.0	111929.0	113916.0	-5817419.0
16	14	23	40	739	240.0	111934.0	113294.0	-5817691.0
16	14	23	40	740	241.0	93264.0	112434.0	-5817017.0
16	14	23	40	740	242.0	57892.0	111133.0	-5816427.0
16	14	23	40	740	243.0	-1951.0	109943.0	-5816642.0
16	14	23	40	740	244.0	-96352.0	109293.0	-5817990.0
16	14	23	40	741	245.0	-232231.0	108203.0	-5817499.0
16	14	23	40	741	246.0	-402906.0	106437.0	-5816908.0
16	14	23	40	741	247.0	-636746.0	104225.0	-5816344.0
16	14	23	40	741	248.0	-804559.0	101937.0	-5817454.0
16	14	23	40	742	249.0	-797466.0	99018.0	-5817900.0
16	14	23	40	742	250.0	-533941.0	96475.0	-5817375.0
16	14	23	40	742	251.0	-186609.0	93676.0	-5816752.0
16	14	23	40	743	252.0	185098.0	90917.0	-5817536.0
16	14	23	40	743	253.0	512214.0	87491.0	-5818547.0
16	14	23	40	743	254.0	695269.0	84418.0	-5818119.0
16	14	23	40	744	255.0	688476.0	81876.0	-5817460.0
16	14	23	40	744	0.0	514972.0	78337.0	-5817278.0
16	14	23	40	745	2.0	70252.0	70209.0	-5818166.0
16	14	23	40	745	3.0	-98846.0	66402.0	-5817444.0
16	14	23	40	745	4.0	-213880.0	61748.0	-5817062.0
16	14	23	40	746	5.0	-293268.0	57716.0	-5818186.0
16	14	23	40	746	6.0	-366844.0	53991.0	-5818634.0
16	14	23	40	746	7.0	-436746.0	50168.0	-5817944.0
16	14	23	40	747	8.0	-496489.0	46383.0	-5817347.0
16	14	23	40	747	9.0	-538929.0	42990.0	-5817371.0
16	14	23	40	747	10.0	-555661.0	39023.0	-5818607.0
16	14	23	40	748	11.0	-552353.0	36331.0	-5818199.0
16	14	23	40	748	12.0	-540579.0	32136.0	-5817639.0
16	14	23	40	748	13.0	-528441.0	27721.0	-5817231.0
16	14	23	40	748	14.0	-524309.0	23619.0	-5818409.0
16	14	23	40	749	15.0	-512549.0	19869.0	-5818404.0
16	14	23	40	749	16.0	-494750.0	16653.0	-5817819.0
16	14	23	40	836	17.0	-487195.0	12460.0	-5817217.0
16	14	23	40	836	18.0	-504967.0	8579.0	-5818124.0
16	14	23	40	836	19.0	-517559.0	4582.0	-5818789.0
16	14	23	40	837	20.0	-509089.0	1186.0	-5818234.0
16	14	23	40	837	21.0	-476106.0	-2613.0	-5817576.0
16	14	23	40	838	22.0	-416920.0	-6617.0	-5817419.0
16	14	23	40	838	23.0	-324338.0	-10610.0	-5818499.0
16	14	23	40	838	25.0	-82191.0	-16627.0	-5817699.0
16	14	23	40	839	26.0	35846.0	-20971.0	-5817501.0
16	14	23	40	839	27.0	128647.0	-24467.0	-5818864.0
16	14	23	40	839	28.0	194707.0	-27393.0	-5818947.0
16	14	23	40	839	29.0	243456.0	-30171.0	-5818263.0
16	14	23	40	840	30.0	277863.0	-32744.0	-5817700.0
16	14	23	40	840	31.0	308613.0	-35358.0	-5818373.0
16	14	23	40	840	32.0	338073.0	-38244.0	-5819214.0
16	14	23	40	840	33.0	352819.0	-39835.0	-5818633.0
16	14	23	40	841	34.0	344104.0	-41555.0	-5817990.0
16	14	23	40	841	35.0	317560.0	-44044.0	-5817915.0
16	14	23	40	841	36.0	281139.0	-46140.0	-5819110.0
16	14	23	40	841	37.0	246575.0	-48445.0	-5818797.0
16	14	23	40	842	38.0	229703.0	-50708.0	-5818189.0
16	14	23	40	842	39.0	239501.0	-52706.0	-5817565.0
16	14	23	40	842	40.0	269130.0	-54666.0	-5817996.0
16	14	23	40	842	41.0	297231.0	-56434.0	-5818737.0
16	14	23	40	843	42.0	307978.0	-58184.0	-5818198.0
16	14	23	40	843	43.0	301043.0	-59837.0	-5817642.0
16	14	23	40	843	44.0	287509.0	-61079.0	-5818162.0
16	14	23	40	844	45.0	277458.0	-61953.0	-5818597.0
16	14	23	40	844	47.0	269463.0	-63696.0	-5817500.0
16	14	23	40	844	48.0	260793.0	-65084.0	-5818105.0
16	14	23	40	844	49.0	225153.0	-67389.0	-5818159.0
16	14	23	40	845	50.0	165808.0	-68275.0	-5817582.0
16	14	23	40	845	51.0	92238.0	-68752.0	-5817108.0
16	14	23	40	845	52.0	-637.0	-68906.0	-5817941.0
16	14	23	40	845	53.0	-104629.0	-68942.0	-5817741.0
16	14	23	40	846	54.0	-211317.0	-69509.0	-5817128.0
16	14	23	40	846	55.0	-324181.0	-70120.0	-5816901.0
16	14	23	40	846	56.0	-431353.0	-70666.0	-5818109.0
16	14	23	40	847	57.0	-515108.0	-70717.0	-5817826.0
16	14	23	40	847	70.0	4103.0	-67686.0	-5818386.0
16	14	23	40	847	71.0	51647.0	-67393.0	-5817684.0
16	14	23	40	847	72.0	91382.0	-67312.0	-5817272.0
16	14	23	40	848	73.0	131680.0	-66467.0	-5818262.0
16	14	23	40	937	74.0	164418.0	-65087.0	-5818782.0
16	14	23	40	938	75.0	180663.0	-64559.0	-5818159.0
16	14	23	40	938	76.0	179964.0	-63279.0	-5817653.0
16	14	23	40	938	77.0	163303.0	-61454.0	-5818143.0
16	14	23	40	939	78.0	142954.0	-59048.0	-5819015.0
16	14	23	40	939	79.0	114958.0	-57428.0	-5818402.0
16	14	23	40	939	80.0	81268.0	-56187.0	-5817822.0
16	14	23	40	940	81.0	47213.0	-54502.0	-5817381.0
16	14	23	40	940	82.0	5340.0	-52488.0	-5818694.0
16	14	23	40	940	83.0	-38449.0	-50882.0	-5818868.0
16	14	23	40	940	84.0	-83266.0	-48971.0	-5818264.0
16	14	23	40	941	85.0	-130482.0	-47068.0	-5817586.0
16	14	23	40	941	86.0	-164011.0	-44961.0	-5817679.0
16	14	23	40	942	87.0	-173594.0	-42471.0	-5818726.0
16	14	23	40	942	88.0	-161618.0	-40500.0	-5818381.0
16	14	23	40	942	89.0	-132697.0	-38385.0	-5817714.0
16	14	23	40	942	90.0	-111461.0	-36116.0	-5817454.0
16	14	23	40	943	92.0	-95517.0	-31843.0	-5818669.0
16	14	23	40	943	93.0	-90116.0	-29913.0	-5817993.0
16	14	23	40	943	94.0	-81356.0	-28588.0	-5817612.0
16	14	23	40	944	95.0	-64583.0	-26595.0	-5818620.0
16	14	23	40	944	96.0	-56609.0	-24257.0	-5818840.0
16	14	23	40	944	97.0	-61377.0	-21699.0	-5818182.0
16	14	23	40	944	98.0	-69978.0	-19180.0	-5817578.0
16	14	23	40	945	99.0	-80472.0	-16759.0	-5817860.0
16	14	23	40	945	100.0	-91165.0	-14336.0	-5818965.0
16	14	23	40	945	101.0	-98819.0	-11579.0	-5818482.0
16	14	23	40	945	102.0	-110427.0	-8896.0	-5817861.0
16	14	23	40	946	103.0	-124461.0	-6996.0	-5817644.0
16	14	23	40	946	104.0	-147918.0	-5396.0	-5819021.0
16	14	23	40	946	105.0	-179144.0	-3686.0	-5818883.0
16	14	23	40	947	106.0	-197851.0	-1896.0	-5818247.0
16	14	23	40	947	107.0	-199592.0	-178.0	-5817689.0
16	14	23	40	947	108.0	-189827.0	1399.0	-5818554.0
16	14	23	40	948	109.0	-186665.0	3912.0	-5819020.0
16	14	23	40	948	110.0	-180602.0	5250.0	-5818434.0
16	14	23	40	948	111.0	-158996.0	6506.0	-5817767.0
16	14	23	40	949	112.0	-129395.0	8264.0	-5817897.0
16	14	23	40	949	113.0	-94114.0	9644.0	-5819133.0
16	14	23	40	949	115.0	-21977.0	11678.0	-5818082.0
16	14	23	40	949	116.0	15621.0	11873.0	-5817559.0
16	14	23	40	950	117.0	49167.0	11871.0	-5818469.0
16	14	23	40	950	118.0	83831.0	12863.0	-5818812.0
16	14	23	40	951	119.0	113886.0	13701.0	-5818142.0
16	14	23	40	951	120.0	148589.0	14413.0	-5817522.0
16	14	23	41	39	121.0	190774.0	15048.0	-5818017.0
16	14	23	41	39	122.0	227817.0	16141.0	-5819067.0
16	14	23	41	40	123.0	256043.0	17368.0	-5818604.0
16	14	23	41	40	124.0	268411.0	18453.0	-5817982.0
16	14	23	41	40	125.0	272318.0	19083.0	-5818188.0
16	14	23	41	41	126.0	254062.0	19344.0	-5819294.0
16	14	23	41	41	127.0	216691.0	19132.0	-5818884.0
16	14	23	41	41	128.0	168509.0	19334.0	-5818246.0
16	14	23	41	41	129.0	119543.0	19395.0	-5817656.0
16	14	23	41	42	130.0	70106.0	19184.0	-5818019.0
16	14	23	41	42	131.0	21613.0	19188.0	-5818654.0
16	14	23	41	42	132.0	-11456.0	18813.0	-5818094.0
16	14	23	41	42	133.0	-36949.0	18375.0	-5817682.0
16	14	23	41	43	134.0	-53602.0	17618.0	-5818698.0
16	14	23	41	43	135.0	-48051.0	16803.0	-5818692.0
16	14	23	41	43	137.0	13406.0	16361.0	-5817448.0
16	14	23	41	44	138.0	56905.0	15471.0	-5817858.0
16	14	23	41	44	139.0	100773.0	13625.0	-5818817.0
16	14	23	41	44	140.0	140196.0	12797.0	-5818330.0
16	14	23	41	44	141.0	163047.0	11684.0	-5817705.0
16	14	23	41	45	142.0	176363.0	11016.0	-5818084.0
16	14	23	41	45	143.0	194358.0	10156.0	-5819276.0
16	14	23	41	45	144.0	223333.0	9080.0	-5818834.0
16	14	23	41	45	145.0	255626.0	8206.0	-5818179.0
16	14	23	41	46	146.0	268614.0	8156.0	-5817726.0
16	14	23	41	46	147.0	265816.0	7449.0	-5818884.0
16	14	23	41	46	148.0	244925.0	6723.0	-5819036.0
16	14	23	41	46	149.0	216989.0	5883.0	-5818416.0
16	14	23	41	47	150.0	187262.0	5043.0	-5817726.0
16	14	23	41	47	151.0	156558.0	4024.0	-5817999.0
16	14	23	41	47	152.0	124840.0	2109.0	-5819137.0
16	14	23	41	48	153.0	94585.0	768.0	-5818751.0
16	14	23	41	48	154.0	69256.0	-147.0	-5818077.0
16	14	23	41	48	155.0	48630.0	-1418.0	-5818355.0
16	14	23	41	49	156.0	36196.0	-2366.0	-5819537.0
16	14	23	41	49	157.0	28468.0	-3439.0	-5819146.0
16	14	23	41	49	158.0	27273.0	-4153.0	-5818486.0
16	14	23	41	50	160.0	63708.0	-6276.0	-5819154.0
16	14	23	41	50	161.0	100413.0	-8926.0	-5819558.0
16	14	23	41	50	162.0	137235.0	-10526.0	-5818906.0
16	14	23	41	51	163.0	181178.0	-12001.0	-5818277.0
16	14	23	41	51	164.0	232635.0	-12566.0	-5818099.0
16	14	23	41	51	165.0	267570.0	-13417.0	-5818888.0
16	14	23	41	143	166.0	280386.0	-14951.0	-5818483.0
16	14	23	41	143	167.0	278387.0	-15954.0	-5817877.0
16	14	23	41	143	168.0	254775.0	-16510.0	-5817872.0
16	14	23	41	144	169.0	214048.0	-17092.0	-5818446.0
16	14	23	41	144	170.0	161499.0	-17839.0	-5817947.0
16	14	23	41	144	171.0	98736.0	-18592.0	-5817741.0
16	14	23	41	145	172.0	23634.0	-19138.0	-5819039.0
16	14	23	41	145	173.0	-49463.0	-19772.0	-5818874.0
16	14	23	41	145	174.0	-122496.0	-20240.0	-5818252.0
16	14	23	41	145	175.0	-195129.0	-20842.0	-5817631.0
16	14	23	41	146	176.0	-250284.0	-21440.0	-5818026.0
16	14	23	41	146	177.0	-290497.0	-21909.0	-5818353.0
16	14	23	41	146	178.0	-317087.0	-22500.0	-5817811.0
16	14	23	41	146	179.0	-334607.0	-23589.0	-5817196.0
16	14	23	41	147	180.0	-345691.0	-23767.0	-5818122.0
16	14	23	41	148	182.0	-339698.0	-24458.0	-5818080.0
16	14	23	41	148	183.0	-321636.0	-25241.0	-5817419.0
16	14	23	41	148	184.0	-297011.0	-26209.0	-5817709.0
16	14	23	41	149	185.0	-259352.0	-26414.0	-5818714.0
16	14	23	41	149	186.0	-206776.0	-26491.0	-5818250.0
16	14	23	41	149	187.0	-143067.0	-26484.0	-5817631.0
16	14	23	41	149	188.0	-79374.0	-26901.0	-5817567.0
16	14	23	41	150	189.0	-25247.0	-26921.0	-5818894.0
16	14	23	41	150	190.0	13704.0	-26704.0	-5818693.0
16	14	23	41	150	191.0	27166.0	-26518.0	-5818052.0
16	14	23	41	150	192.0	14719.0	-26234.0	-5817577.0
16	14	23	41	151	193.0	-20329.0	-26414.0	-5818603.0
16	14	23	41	151	194.0	-69969.0	-26966.0	-5818879.0
16	14	23	41	151	195.0	-123458.0	-27039.0	-5818209.0
16	14	23	41	151	196.0	-172386.0	-26366.0	-5817531.0
16	14	23	41	243	197.0	-201781.0	-26027.0	-5817649.0
16	14	23	41	243	198.0	-193198.0	-26189.0	-5818827.0
16	14	23	41	243	199.0	-141622.0	-26361.0	-5818507.0
16	14	23	41	244	200.0	-42412.0	-25646.0	-5817833.0
16	14	23	41	244	201.0	82779.0	-25669.0	-5817613.0
16	14	23	41	244	202.0	216513.0	-25335.0	-5818985.0
16	14	23	41	245	203.0	354690.0	-25146.0	-5819046.0
16	14	23	41	245	227.0	-867287.0	-15714.0	-5817962.0
16	14	23	41	245	228.0	-1171899.0	-15784.0	-5818467.0
16	14	23	41	245	229.0	-1307271.0	-16254.0	-5819493.0
16	14	23	41	246	230.0	-1258313.0	-15753.0	-5818911.0
16	14	23	41	246	231.0	-1054029.0	-14849.0	-5818347.0
16	14	23	41	246	232.0	-780837.0	-13891.0	-5818026.0
16	14	23	41	247	233.0	-482841.0	-13376.0	-5819042.0
16	14	23	41	247	234.0	-204429.0	-12965.0	-5818842.0
16	14	23	41	247	235.0	49495.0	-11627.0	-5818329.0
16	14	23	41	247	236.0	262007.0	-10257.0	-5819084.0
16	14	23	41	248	237.0	428939.0	-9249.0	-5819972.0
16	14	23	41	248	238.0	544487.0	-8742.0	-5819386.0
16	14	23	41	248	239.0	604743.0	-7700.0	-5818810.0
16	14	23	41	248	240.0	598323.0	-6786.0	-5818419.0
16	14	23	41	249	241.0	499866.0	-6349.0	-5819644.0
16	14	23	41	249	242.0	330655.0	-5639.0	-5819631.0
16	14	23	41	249	243.0	147639.0	-5348.0	-5818977.0
16	14	23	41	250	244.0	-5561.0	-4884.0	-5818299.0
16	14	23	41	250	245.0	-106397.0	-4474.0	-5818974.0
16	14	23	41	250	246.0	-164054.0	-3917.0	-5819873.0
16	14	23	41	250	247.0	-200979.0	-3151.0	-5819369.0
16	14	23	41	251	248.0	-226281.0	-2044.0	-5818681.0
16	14	23	41	251	250.0	-290270.0	-783.0	-5819526.0
16	14	23	41	251	251.0	-332397.0	-826.0	-5819517.0
16	14	23	41	252	252.0	-376330.0	-217.0	-5818846.0
16	14	23	41	252	253.0	-414566.0	502.0	-5818629.0
16	14	23	41	252	254.0	-435351.0	983.0	-5819790.0
16	14	23	41	253	255.0	-436676.0	1887.0	-5819786.0
16	14	23	41	253	0.0	-416447.0	2626.0	-5819056.0
16	14	23	41	253	1.0	-377077.0	4502.0	-5818496.0
16	14	23	41	254	2.0	-311072.0	5498.0	-5818891.0
16	14	23	41	254	3.0	-236392.0	5558.0	-5819667.0
16	14	23	41	254	4.0	-165539.0	6173.0	-5819044.0
16	14	23	41	254	5.0	-101299.0	6890.0	-5818449.0
16	14	23	41	255	6.0	-37556.0	7451.0	-5818087.0
16	14	23	41	255	7.0	27511.0	7921.0	-5818991.0
16	14	23	41	255	8.0	92251.0	8642.0	-5818746.0
16	14	23	41	256	9.0	159919.0	8995.0	-5818164.0
16	14	23	41	344	10.0	227743.0	9625.0	-5817999.0
16	14	23	41	344	11.0	289878.0	9967.0	-5818716.0
16	14	23	41	345	16.0	748971.0	11853.0	-5818568.0
16	14	23	41	345	17.0	809688.0	11238.0	-5817984.0
16	14	23	41	345	18.0	854116.0	11041.0	-5818364.0
16	14	23	41	345	19.0	876294.0	11492.0	-5818848.0
16	14	23	41	346	20.0	871728.0	11716.0	-5818305.0
16	14	23	41	346	21.0	838779.0	12041.0	-5817669.0
16	14	23	41	346	22.0	785361.0	12179.0	-5818041.0
16	14	23	41	347	23.0	710425.0	12278.0	-5818521.0
16	14	23	41	347	24.0	619544.0	13632.0	-5817987.0
16	14	23	41	347	25.0	515349.0	14604.0	-5817414.0
16	14	23	41	347	26.0	407146.0	14930.0	-5817964.0
16	14	23	41	348	27.0	303926.0	14901.0	-5818082.0
16	14	23	41	348	28.0	204954.0	14966.0	-5817501.0
16	14	23	41	348	29.0	115836.0	15259.0	-5817583.0
16	14	23	41	349	30.0	35379.0	15708.0	-5818931.0
16	14	23	41	349	31.0	-22866.0	16450.0	-5818537.0
16	14	23	41	349	32.0	-66882.0	16488.0	-5817951.0
16	14	23	41	349	33.0	-89250.0	16368.0	-5817527.0
16	14	23	41	350	34.0	-80677.0	16181.0	-5818468.0
16	14	23	41	350	35.0	-69408.0	16503.0	-5818269.0
16	14	23	41	350	36.0	-71437.0	16945.0	-5817676.0
16	14	23	41	350	38.0	-99874.0	18207.0	-5818059.0
16	14	23	41	351	39.0	-131909.0	18862.0	-5817778.0
16	14	23	41	351	40.0	-171317.0	18324.0	-5817201.0
16	14	23	41	351	41.0	-209787.0	19019.0	-5816999.0
16	14	23	41	352	42.0	-248259.0	20196.0	-5817886.0
16	14	23	41	352	43.0	-284614.0	21311.0	-5817557.0
16	14	23	41	352	44.0	-309061.0	22806.0	-5817261.0
16	14	23	41	352	45.0	-330044.0	25159.0	-5818442.0
16	14	23	41	353	46.0	-354291.0	27649.0	-5818397.0
16	14	23	41	353	47.0	-383096.0	30901.0	-5817749.0
16	14	23	41	353	48.0	-409866.0	33863.0	-5817127.0
16	14	23	41	354	49.0	-426530.0	36776.0	-5817631.0
16	14	23	41	354	50.0	-418601.0	39265.0	-5818761.0
16	14	23	41	354	51.0	-390282.0	42155.0	-5818176.0
16	14	23	41	354	52.0	-355299.0	45124.0	-5817581.0
16	14	23	41	355	53.0	-321856.0	48836.0	-5817128.0
16	14	23	41	355	54.0	-287876.0	53149.0	-5818378.0
16	14	23	41	355	55.0	-268177.0	56509.0	-5818541.0
16	14	23	41	355	56.0	-263518.0	60416.0	-5817936.0
16	14	23	41	356	57.0	-258367.0	64458.0	-5817301.0
16	14	23	41	356	58.0	-253317.0	68239.0	-5817858.0
16	14	23	41	356	59.0	-250021.0	71570.0	-5818671.0
16	14	23	41	357	61.0	-237959.0	79800.0	-5817493.0
16	14	23	41	357	62.0	-219652.0	83023.0	-5817717.0
16	14	23	41	357	63.0	-191364.0	87017.0	-5818775.0
16	14	23	41	357	64.0	-152836.0	90786.0	-5818382.0
16	14	23	41	358	65.0	-96169.0	94679.0	-5817735.0
16	14	23	41	358	66.0	-34657.0	98563.0	-5817282.0
16	14	23	41	436	67.0	38896.0	102236.0	-5818302.0
16	14	23	41	436	68.0	124460.0	105580.0	-5818656.0
16	14	23	41	436	69.0	220606.0	109990.0	-5817974.0
16	14	23	41	437	70.0	324361.0	112996.0	-5817402.0
16	14	23	41	437	71.0	421781.0	115923.0	-5817271.0
16	14	23	41	437	72.0	491238.0	118386.0	-5818015.0
16	14	23	41	437	73.0	524581.0	120792.0	-5817601.0
16	14	23	41	438	74.0	527843.0	122825.0	-5817089.0
16	14	23	41	438	75.0	498630.0	124444.0	-5817994.0
16	14	23	41	438	76.0	451748.0	125316.0	-5818540.0
16	14	23	41	438	77.0	398703.0	126572.0	-5817901.0
16	14	23	41	439	78.0	333302.0	127728.0	-5817261.0
16	14	23	41	439	79.0	258865.0	127915.0	-5817684.0
16	14	23	41	439	80.0	173304.0	128705.0	-5818719.0
16	14	23	41	440	81.0	92508.0	128837.0	-5818211.0
16	14	23	41	440	83.0	-78854.0	128343.0	-5816971.0
16	14	23	41	440	84.0	-156986.0	128063.0	-5817972.0
16	14	23	41	440	85.0	-226607.0	126257.0	-5818592.0
16	14	23	41	441	86.0	-279266.0	125338.0	-5818014.0
16	14	23	41	441	87.0	-318177.0	123818.0	-5817402.0
16	14	23	41	441	88.0	-335754.0	122109.0	-5817682.0
16	14	23	41	442	89.0	-326288.0	120600.0	-5818591.0
16	14	23	41	442	90.0	-288925.0	119008.0	-5818126.0
16	14	23	41	442	91.0	-239971.0	116858.0	-5817467.0
16	14	23	41	442	92.0	-189872.0	115575.0	-5817479.0
16	14	23	41	443	93.0	-149049.0	113085.0	-5818735.0
16	14	23	41	443	94.0	-109214.0	110008.0	-5818471.0
16	14	23	41	443	95.0	-61416.0	106808.0	-5817847.0
16	14	23	41	443	96.0	-359.0	104023.0	-5817364.0
16	14	23	41	444	97.0	87276.0	100672.0	-5818446.0
16	14	23	41	444	98.0	170028.0	97260.0	-5819146.0
16	14	23	41	444	99.0	237246.0	94188.0	-5818487.0
16	14	23	41	445	100.0	242618.0	90556.0	-5817917.0
16	14	23	41	445	101.0	193085.0	86094.0	-5817612.0
16	14	23	41	445	102.0	24641.0	82170.0	-5818899.0
16	14	23	41	445	103.0	-93202.0	77289.0	-5818853.0
16	14	23	41	446	104.0	-3510.0	72968.0	-5818231.0
16	14	23	41	446	106.0	595974.0	64900.0	-5818756.0
16	14	23	41	446	107.0	836564.0	59459.0	-5819391.0
16	14	23	41	446	108.0	1005079.0	54528.0	-5818816.0
16	14	23	41	447	109.0	1055422.0	49767.0	-5818184.0
16	14	23	41	447	110.0	924418.0	45744.0	-5818659.0
16	14	23	41	447	111.0	644431.0	41356.0	-5819617.0
16	14	23	41	519	112.0	286507.0	37080.0	-5819114.0
16	14	23	41	519	113.0	-73861.0	32963.0	-5818426.0
16	14	23	41	519	114.0	-362317.0	29829.0	-5818295.0
16	14	23	41	520	115.0	-567171.0	25942.0	-5819407.0
16	14	23	41	520	116.0	-731830.0	21297.0	-5819221.0
16	14	23	41	520	117.0	-870784.0	16918.0	-5818531.0
16	14	23	41	520	118.0	-963308.0	13108.0	-5818039.0
16	14	23	41	521	119.0	-992421.0	9340.0	-5818869.0
16	14	23	41	521	120.0	-958090.0	5582.0	-5819484.0
16	14	23	41	521	121.0	-858515.0	1674.0	-5818837.0
16	14	23	41	522	122.0	-698021.0	-2251.0	-5818278.0
16	14	23	41	522	123.0	-505459.0	-6623.0	-5818213.0
16	14	23	41	522	124.0	-306586.0	-10831.0	-5819135.0
16	14	23	41	522	125.0	-141233.0	-14545.0	-5818766.0
16	14	23	41	523	126.0	-7274.0	-18094.0	-5818241.0
16	14	23	41	523	128.0	118004.0	-24476.0	-5819674.0
16	14	23	41	523	129.0	103234.0	-27463.0	-5819099.0
16	14	23	41	524	130.0	52691.0	-31528.0	-5818497.0
16	14	23	41	524	131.0	-6149.0	-34559.0	-5818123.0
16	14	23	41	524	132.0	-61412.0	-37467.0	-5819281.0
16	14	23	41	524	133.0	-115613.0	-40561.0	-5819157.0
16	14	23	41	525	134.0	-154533.0	-43319.0	-5818580.0
16	14	23	41	525	135.0	-167982.0	-45526.0	-5818019.0
16	14	23	41	525	136.0	-151426.0	-47791.0	-5819029.0
16	14	23	41	525	137.0	-109661.0	-49581.0	-5819375.0
16	14	23	41	526	138.0	-51831.0	-51891.0	-5818806.0
16	14	23	41	526	139.0	18049.0	-53392.0	-5818171.0
16	14	23	41	526	140.0	90039.0	-55514.0	-5818594.0
16	14	23	41	625	141.0	157306.0	-57056.0	-5819711.0
16	14	23	41	625	142.0	210639.0	-58314.0	-5819323.0
16	14	23	41	626	143.0	248084.0	-60152.0	-5818638.0
16	14	23	41	626	144.0	268065.0	-61795.0	-5818506.0
16	14	23	41	626	145.0	262335.0	-62915.0	-5819799.0
16	14	23	41	626	146.0	242841.0	-63918.0	-5819752.0
16	14	23	41	627	147.0	200589.0	-64797.0	-5819014.0
16	14	23	41	627	148.0	150000.0	-65650.0	-5818461.0
16	14	23	41	627	149.0	104155.0	-66468.0	-5818959.0
16	14	23	41	627	151.0	30568.0	-68173.0	-5819299.0
16	14	23	41	628	152.0	-9172.0	-68677.0	-5818730.0
16	14	23	41	628	153.0	-32981.0	-69826.0	-5818434.0
16	14	23	41	628	154.0	-42154.0	-69179.0	-5819857.0
16	14	23	41	628	155.0	-35576.0	-68494.0	-5819869.0
16	14	23	41	629	156.0	-23016.0	-69082.0	-5819286.0
16	14	23	41	629	173.0	62290.0	-64566.0	-5819493.0
16	14	23	41	629	174.0	46896.0	-63999.0	-5818926.0
16	14	23	41	630	175.0	36282.0	-63869.0	-5818743.0
16	14	23	41	630	176.0	33908.0	-63014.0	-5819945.0
16	14	23	41	630	177.0	58541.0	-61939.0	-5819662.0
16	14	23	41	630	178.0	104741.0	-60861.0	-5819080.0
16	14	23	41	631	179.0	170111.0	-60136.0	-5818434.0
16	14	23	41	631	180.0	236528.0	-58725.0	-5819077.0
16	14	23	41	631	181.0	301203.0	-57388.0	-5819590.0
16	14	23	41	632	182.0	373035.0	-55034.0	-5819012.0
16	14	23	41	632	183.0	448648.0	-53190.0	-5818352.0
16	14	23	41	632	184.0	518319.0	-51341.0	-5818494.0
16	14	23	41	632	185.0	571136.0	-50322.0	-5819725.0
16	14	23	41	633	186.0	604596.0	-48442.0	-5819399.0
16	14	23	41	633	187.0	628558.0	-46151.0	-5818747.0
16	14	23	41	633	188.0	637418.0	-44657.0	-5818550.0
16	14	23	41	634	189.0	622068.0	-43309.0	-5819713.0
16	14	23	41	634	190.0	588839.0	-41624.0	-5819619.0
16	14	23	41	634	191.0	536513.0	-39896.0	-5818957.0
16	14	23	41	635	192.0	476400.0	-38038.0	-5818478.0
16	14	23	41	635	193.0	420839.0	-36279.0	-5819561.0
16	14	23	41	635	194.0	377724.0	-35178.0	-5820303.0
16	14	23	41	636	196.0	299827.0	-31296.0	-5818904.0
16	14	23	41	636	197.0	266043.0	-30687.0	-5818922.0
16	14	23	41	636	198.0	223758.0	-29371.0	-5820298.0
16	14	23	41	636	199.0	171849.0	-27836.0	-5820037.0
16	14	23	41	637	200.0	114117.0	-25976.0	-5819386.0
16	14	23	41	637	201.0	60548.0	-23939.0	-5818757.0
16	14	23	42	32	202.0	9473.0	-22264.0	-5818818.0
16	14	23	42	32	203.0	-48723.0	-20509.0	-5819319.0
16	14	23	42	33	204.0	-100257.0	-17785.0	-5818812.0
16	14	23	42	33	205.0	-151935.0	-15982.0	-5818892.0
16	14	23	42	33	206.0	-207617.0	-14889.0	-5820282.0
16	14	23	42	34	207.0	-283395.0	-13354.0	-5819926.0
16	14	23	42	34	208.0	-375933.0	-12352.0	-5819304.0
16	14	23	42	35	209.0	-468199.0	-10772.0	-5818691.0
16	14	23	42	35	210.0	-562320.0	-10030.0	-5819278.0
16	14	23	42	35	211.0	-644162.0	-8679.0	-5819567.0
16	14	23	42	35	212.0	-723336.0	-7194.0	-5818994.0
16	14	23	42	36	213.0	-778866.0	-5127.0	-5818347.0
16	14	23	42	36	214.0	-820069.0	-3558.0	-5819091.0
16	14	23	42	36	215.0	-851047.0	-2891.0	-5819891.0
16	14	23	42	37	216.0	-877712.0	-2297.0	-5819349.0
16	14	23	42	37	218.0	-887300.0	-82.0	-5819052.0
16	14	23	42	37	219.0	-863099.0	249.0	-5820158.0
16	14	23	42	37	220.0	-822477.0	237.0	-5819756.0
16	14	23	42	38	221.0	-763373.0	990.0	-5819063.0
16	14	23	42	38	222.0	-698606.0	2132.0	-5819176.0
16	14	23	42	38	223.0	-630884.0	2659.0	-5820287.0
16	14	23	42	38	224.0	-566335.0	3498.0	-5819972.0
16	14	23	42	39	225.0	-500551.0	4022.0	-5819273.0
16	14	23	42	39	226.0	-436186.0	5057.0	-5818804.0
16	14	23	42	39	227.0	-370827.0	5983.0	-5819642.0
16	14	23	42	40	228.0	-292219.0	6153.0	-5820040.0
16	14	23	42	40	229.0	-219612.0	5914.0	-5819421.0
16	14	23	42	40	230.0	-159809.0	6008.0	-5818797.0
16	14	23	42	40	231.0	-117034.0	6268.0	-5819046.0
16	14	23	42	42	232.0	-91261.0	6729.0	-5820048.0
16	14	23	42	43	233.0	-72896.0	6483.0	-5819577.0
16	14	23	42	43	234.0	-68070.0	6431.0	-5818945.0
16	14	23	42	43	235.0	-67242.0	6330.0	-5819187.0
16	14	23	42	44	236.0	-73288.0	6161.0	-5820417.0
16	14	23	42	44	237.0	-76551.0	5436.0	-5819982.0
16	14	23	42	44	238.0	-75044.0	5004.0	-5819382.0
16	14	23	42	45	239.0	-64239.0	5036.0	-5818781.0
16	14	23	42	45	241.0	-27298.0	3948.0	-5819839.0
16	14	23	42	45	242.0	-25056.0	2676.0	-5819321.0
16	14	23	42	46	243.0	-42975.0	2319.0	-5818646.0
16	14	23	42	46	244.0	-66832.0	1798.0	-5819409.0
16	14	23	42	46	245.0	-90222.0	1359.0	-5820244.0
16	14	23	42	47	246.0	-116732.0	464.0	-5819710.0
16	14	23	42	47	247.0	-150395.0	-299.0	-5819008.0
16	14	23	42	47	248.0	-186197.0	-859.0	-5819261.0
16	14	23	42	48	249.0	-224472.0	-529.0	-5820417.0
16	14	23	42	48	250.0	-253974.0	-1357.0	-5820049.0
16	14	23	42	48	251.0	-284169.0	-2643.0	-5819396.0
16	14	23	42	50	252.0	-308826.0	-3207.0	-5819352.0
16	14	23	42	50	253.0	-329117.0	-4656.0	-5820912.0
16	14	23	42	51	254.0	-340958.0	-6084.0	-5820924.0
16	14	23	42	51	255.0	-350452.0	-6789.0	-5820225.0
16	14	23	42	51	0.0	-354432.0	-7997.0	-5819651.0
16	14	23	42	52	1.0	-344906.0	-8674.0	-5820152.0
16	14	23	42	52	2.0	-329081.0	-9828.0	-5821082.0
16	14	23	42	52	3.0	-296444.0	-10512.0	-5820491.0
16	14	23	42	53	4.0	-265785.0	-11324.0	-5819868.0
16	14	23	42	53	5.0	-237753.0	-12285.0	-5819259.0
16	14	23	42	53	7.0	-158378.0	-14197.0	-5820034.0
16	14	23	42	54	8.0	-114236.0	-15351.0	-5819478.0
16	14	23	42	54	9.0	-87810.0	-16792.0	-5819562.0
16	14	23	42	54	10.0	-63663.0	-17607.0	-5820864.0
16	14	23	42	55	11.0	-44182.0	-18266.0	-5820474.0
16	14	23	42	55	12.0	-29153.0	-18930.0	-5819903.0
16	14	23	42	55	13.0	-10544.0	-19619.0	-5819471.0
16	14	23	42	56	14.0	12128.0	-20434.0	-5820254.0
16	14	23	42	56	15.0	35990.0	-21053.0	-5820036.0
16	14	23	42	56	16.0	75190.0	-20747.0	-5819464.0
16	14	23	42	57	17.0	126082.0	-21232.0	-5819224.0
16	14	23	42	57	18.0	190277.0	-22446.0	-5820647.0
16	14	23	42	57	19.0	262255.0	-23306.0	-5820495.0
16	14	23	42	57	20.0	333595.0	-23743.0	-5819920.0
16	14	23	42	58	21.0	388534.0	-23949.0	-5819253.0
16	14	23	42	58	22.0	433058.0	-24670.0	-5819612.0
16	14	23	42	58	23.0	487023.0	-25236.0	-5820552.0
16	14	23	42	59	24.0	548238.0	-25623.0	-5820120.0
16	14	23	42	59	25.0	624390.0	-25748.0	-5819452.0
16	14	23	42	59	26.0	684634.0	-26267.0	-5819259.0
16	14	23	42	59	27.0	723369.0	-26582.0	-5820403.0
16	14	23	42	60	28.0	750681.0	-26608.0	-5820421.0
16	14	23	42	60	30.0	756897.0	-27452.0	-5819494.0
16	14	23	42	60	31.0	746033.0	-28701.0	-5820766.0
16	14	23	42	60	32.0	727473.0	-28851.0	-5820954.0
16	14	23	42	61	33.0	713362.0	-28467.0	-5820248.0
16	14	23	42	61	34.0	704670.0	-28877.0	-5819672.0
16	14	23	42	61	35.0	710129.0	-29082.0	-5819155.0
16	14	23	42	62	36.0	725899.0	-29206.0	-5819772.0
16	14	23	42	62	37.0	746394.0	-28843.0	-5819513.0
16	14	23	42	62	38.0	762718.0	-27297.0	-5818977.0
16	14	23	42	63	39.0	762079.0	-26822.0	-5819559.0
16	14	23	42	63	40.0	757626.0	-27277.0	-5820347.0
16	14	23	42	63	41.0	750597.0	-27284.0	-5819705.0
16	14	23	42	63	42.0	747867.0	-27008.0	-5819108.0
16	14	23	42	64	43.0	735983.0	-27012.0	-5819096.0
16	14	23	42	64	44.0	719858.0	-26626.0	-5820569.0
16	14	23	42	64	45.0	700986.0	-26249.0	-5820279.0
16	14	23	42	64	46.0	665895.0	-26129.0	-5819697.0
16	14	23	42	65	47.0	619610.0	-25491.0	-5819134.0
16	14	23	42	65	48.0	555718.0	-25409.0	-5820138.0
16	14	23	42	65	49.0	484153.0	-25740.0	-5820476.0
16	14	23	42	66	50.0	419499.0	-25506.0	-5819883.0
16	14	23	42	66	52.0	314933.0	-25408.0	-5819492.0
16	14	23	42	66	53.0	277736.0	-25945.0	-5820433.0
16	14	23	42	67	54.0	241978.0	-25897.0	-5820018.0
16	14	23	42	67	55.0	210920.0	-25689.0	-5819309.0
16	14	23	42	67	56.0	169108.0	-25632.0	-5819187.0
16	14	23	42	67	57.0	110926.0	-25003.0	-5820224.0
16	14	23	42	68	58.0	30784.0	-24632.0	-5820046.0
16	14	23	42	68	59.0	-66561.0	-24586.0	-5819350.0
16	14	23	42	68	60.0	-164798.0	-22946.0	-5819164.0
16	14	23	42	69	61.0	-262037.0	-21574.0	-5820284.0
16	14	23	42	69	62.0	-343414.0	-21476.0	-5820194.0
16	14	23	42	69	63.0	-405357.0	-21468.0	-5819481.0
16	14	23	42	69	64.0	-444591.0	-20736.0	-5818981.0
16	14	23	42	70	65.0	-456787.0	-20032.0	-5819835.0
16	14	23	42	70	66.0	-431562.0	-19571.0	-5820472.0
16	14	23	42	70	67.0	-366650.0	-18796.0	-5819774.0
16	14	23	42	70	68.0	-255243.0	-18146.0	-5819191.0
16	14	23	42	71	69.0	-104152.0	-17316.0	-5818769.0
16	14	23	42	71	70.0	49074.0	-16649.0	-5819764.0
16	14	23	42	71	71.0	186140.0	-16142.0	-5819729.0
16	14	23	42	72	72.0	276783.0	-15544.0	-5819167.0
16	14	23	42	72	74.0	174372.0	-14210.0	-5820611.0
16	14	23	42	72	75.0	-67956.0	-13769.0	-5820145.0
16	14	23	42	73	76.0	-427354.0	-14280.0	-5819533.0
16	14	23	42	73	77.0	-811078.0	-13387.0	-5819216.0
16	14	23	42	73	78.0	-1070804.0	-12597.0	-5820437.0
16	14	23	42	73	79.0	-1163276.0	-11534.0	-5820244.0
16	14	23	42	74	80.0	-1095801.0	-10347.0	-5819702.0
16	14	23	42	74	81.0	-888088.0	-9876.0	-5819156.0
16	14	23	42	74	82.0	-539126.0	-8806.0	-5820103.0
16	14	23	42	74	83.0	-84777.0	-7225.0	-5820600.0
16	14	23	42	75	84.0	403394.0	-6078.0	-5820096.0
16	14	23	42	75	85.0	870413.0	-5421.0	-5819452.0
16	14	23	42	75	86.0	1256048.0	-4689.0	-5819249.0
16	14	23	42	75	87.0	1478553.0	-3761.0	-5820295.0
16	14	23	42	76	88.0	1508868.0	-3519.0	-5820275.0
16	14	23	42	76	89.0	1353228.0	-2591.0	-5819557.0
16	14	23	42	76	90.0	1032964.0	-1514.0	-5819323.0
16	14	23	42	77	91.0	602333.0	-1122.0	-5820487.0
16	14	23	42	77	92.0	156959.0	-295.0	-5820464.0
16	14	23	42	77	93.0	-228439.0	464.0	-5819731.0
16	14	23	42	77	94.0	-525189.0	1092.0	-5819216.0
16	14	23	42	78	95.0	-736904.0	1633.0	-5820089.0
16	14	23	42	78	97.0	-819104.0	2447.0	-5820311.0
16	14	23	42	78	98.0	-737846.0	2871.0	-5819741.0
16	14	23	42	79	99.0	-615442.0	3258.0	-5819222.0
16	14	23	42	79	100.0	-489232.0	3776.0	-5820405.0
16	14	23	42	79	101.0	-362199.0	4447.0	-5820567.0
16	14	23	42	79	102.0	-207720.0	5708.0	-5820020.0
16	14	23	42	80	103.0	-25765.0	7643.0	-5819374.0
16	14	23	42	80	104.0	132346.0	8127.0	-5819692.0
16	14	23	42	80	105.0	240756.0	8624.0	-5820584.0
16	14	23	42	80	106.0	264504.0	9136.0	-5820180.0
16	14	23	42	81	107.0	204481.0	9731.0	-5819517.0
16	14	23	42	81	108.0	78593.0	9928.0	-5819916.0
16	14	23	42	81	109.0	-94269.0	10318.0	-5820696.0
16	14	23	42	82	119.0	-444449.0	16042.0	-5820065.0
16	14	23	42	82	120.0	-384564.0	16236.0	-5819487.0
16	14	23	42	82	121.0	-331596.0	15907.0	-5819477.0
16	14	23	42	82	122.0	-279724.0	16236.0	-5820809.0
16	14	23	42	83	123.0	-220614.0	16781.0	-5820520.0
16	14	23	42	83	124.0	-152485.0	17586.0	-5819964.0
16	14	23	42	83	125.0	-74248.0	17982.0	-5819395.0
16	14	23	42	83	126.0	4004.0	18547.0	-5820099.0
16	14	23	42	84	127.0	92163.0	19206.0	-5820324.0
16	14	23	42	84	128.0	173513.0	19813.0	-5819758.0
16	14	23	42	84	129.0	252808.0	19934.0	-5819286.0
16	14	23	42	84	130.0	309455.0	19751.0	-5820049.0
16	14	23	42	85	131.0	340585.0	20408.0	-5819861.0
16	14	23	42	85	132.0	351550.0	20514.0	-5819267.0
16	14	23	42	85	133.0	340046.0	20859.0	-5818850.0
16	14	23	42	85	134.0	309748.0	20617.0	-5819749.0
16	14	23	42	86	135.0	264379.0	21114.0	-5819563.0
16	14	23	42	86	136.0	217971.0	20886.0	-5819001.0
16	14	23	42	86	137.0	178531.0	21191.0	-5819616.0
16	14	23	42	86	138.0	133012.0	21353.0	-5820717.0
16	14	23	42	86	139.0	89389.0	21081.0	-5820174.0
16	14	23	42	87	140.0	53351.0	20943.0	-5819584.0
16	14	23	42	87	142.0	14753.0	20364.0	-5820723.0
16	14	23	42	87	143.0	-838.0	19123.0	-5820321.0
16	14	23	42	88	144.0	-12516.0	18323.0	-5819699.0
16	14	23	42	88	145.0	-24412.0	18106.0	-5819152.0
16	14	23	42	88	146.0	-31376.0	18143.0	-5820284.0
16	14	23	42	88	147.0	-43663.0	17799.0	-5820722.0
16	14	23	42	89	148.0	-60171.0	17864.0	-5820167.0
16	14	23	42	89	149.0	-81673.0	18048.0	-5819484.0
16	14	23	42	89	150.0	-102708.0	18724.0	-5819423.0
16	14	23	42	89	151.0	-116167.0	19249.0	-5820616.0
16	14	23	42	90	152.0	-111462.0	19273.0	-5820452.0
16	14	23	42	90	153.0	-87252.0	19204.0	-5819739.0
16	14	23	42	90	154.0	-44607.0	19363.0	-5819525.0
16	14	23	42	91	155.0	10514.0	19406.0	-5820781.0
16	14	23	42	91	156.0	64383.0	19298.0	-5820824.0
16	14	23	42	92	157.0	116070.0	19314.0	-5820148.0
16	14	23	42	92	158.0	157400.0	19663.0	-5819662.0
16	14	23	42	92	159.0	197068.0	19995.0	-5820514.0
16	14	23	42	93	160.0	237762.0	20438.0	-5821152.0
16	14	23	42	93	161.0	281279.0	21023.0	-5820525.0
16	14	23	42	93	162.0	320165.0	21798.0	-5819925.0
16	14	23	42	94	164.0	398284.0	24705.0	-5820702.0
16	14	23	42	94	165.0	439429.0	25925.0	-5820417.0
16	14	23	42	94	166.0	482459.0	26869.0	-5819832.0
16	14	23	42	95	167.0	522704.0	28633.0	-5819672.0
16	14	23	42	95	168.0	566103.0	31136.0	-5820436.0
16	14	23	42	95	169.0	608881.0	33348.0	-5820028.0
16	14	23	42	96	170.0	645026.0	35603.0	-5819596.0
16	14	23	42	96	171.0	668263.0	38114.0	-5820722.0
16	14	23	42	96	172.0	670833.0	41713.0	-5821046.0
16	14	23	42	97	173.0	661418.0	45785.0	-5820446.0
16	14	23	42	97	174.0	647668.0	49569.0	-5819809.0
16	14	23	42	97	175.0	632127.0	53272.0	-5819969.0
16	14	23	42	97	176.0	610054.0	57285.0	-5821008.0
16	14	23	42	98	177.0	597853.0	61784.0	-5820582.0
16	14	23	42	98	178.0	591648.0	65587.0	-5819946.0
16	14	23	42	98	179.0	577793.0	69782.0	-5819470.0
16	14	23	42	99	180.0	560466.0	73792.0	-5820512.0
16	14	23	42	104	181.0	536826.0	78030.0	-5820786.0
16	14	23	42	104	182.0	505806.0	82167.0	-5820179.0
16	14	23	42	105	183.0	467209.0	85846.0	-5819584.0
16	14	23	42	105	184.0	426799.0	89691.0	-5820344.0
16	14	23	42	105	185.0	376453.0	94121.0	-5820948.0
16	14	23	42	106	187.0	247674.0	101436.0	-5819777.0
16	14	23	42	127	188.0	163769.0	104126.0	-5820331.0
16	14	23	42	127	189.0	64407.0	106958.0	-5821160.0
16	14	23	42	128	190.0	-41202.0	110262.0	-5820621.0
16	14	23	42	128	191.0	-144209.0	113477.0	-5819959.0
16	14	23	42	129	192.0	-245466.0	116371.0	-5819862.0
16	14	23	42	149	193.0	-337686.0	118713.0	-5821180.0
16	14	23	42	149	194.0	-431912.0	121037.0	-5821004.0
16	14	23	42	150	195.0	-518784.0	123977.0	-5820309.0
16	14	23	42	150	196.0	-594613.0	125441.0	-5819762.0
16	14	23	42	150	197.0	-657072.0	126564.0	-5820488.0
16	14	23	42	150	198.0	-706672.0	127594.0	-5821426.0
16	14	23	42	151	199.0	-737369.0	128654.0	-5820810.0
16	14	23	42	151	200.0	-747692.0	129215.0	-5820219.0
16	14	23	42	151	201.0	-737630.0	129624.0	-5819826.0
16	14	23	42	151	202.0	-700468.0	130112.0	-5821059.0
16	14	23	42	153	203.0	-662763.0	130359.0	-5821116.0
16	14	23	42	154	204.0	-618293.0	130544.0	-5820542.0
16	14	23	42	154	205.0	-572228.0	129494.0	-5820064.0
16	14	23	42	154	206.0	-521618.0	128272.0	-5821318.0
16	14	23	42	155	207.0	-472665.0	127896.0	-5821673.0
16	14	23	42	155	209.0	-375794.0	124467.0	-5820446.0
16	14	23	42	155	210.0	-329704.0	121907.0	-5821004.0
16	14	23	42	155	211.0	-282175.0	118784.0	-5821766.0
16	14	23	42	155	212.0	-227806.0	116031.0	-5821305.0
16	14	23	42	156	213.0	-172647.0	113376.0	-5820650.0
16	14	23	42	156	214.0	-109870.0	110268.0	-5820329.0
16	14	23	42	156	215.0	-40002.0	107124.0	-5821402.0
16	14	23	42	179	216.0	21838.0	103604.0	-5821631.0
16	14	23	42	180	217.0	62528.0	100326.0	-5820927.0
16	14	23	42	180	218.0	96118.0	97143.0	-5820518.0
16	14	23	42	187	219.0	118642.0	93052.0	-5821489.0
16	14	23	42	188	220.0	117073.0	88262.0	-5821827.0
16	14	23	42	188	221.0	79265.0	83693.0	-5821153.0
16	14	23	42	188	222.0	-6842.0	79579.0	-5820584.0
16	14	23	42	189	223.0	-131986.0	75576.0	-5820743.0
16	14	23	42	189	224.0	-331519.0	71094.0	-5821652.0
16	14	23	42	189	225.0	-444957.0	66623.0	-5821112.0
16	14	23	42	189	226.0	-320964.0	61834.0	-5820549.0
16	14	23	42	190	227.0	-11550.0	57249.0	-5820087.0
16	14	23	42	190	228.0	324438.0	53207.0	-5821437.0
16	14	23	42	190	229.0	626601.0	48975.0	-5821691.0
16	14	23	42	190	230.0	889228.0	44312.0	-5821126.0
16	14	23	42	191	232.0	987067.0	34764.0	-5820666.0
16	14	23	42	191	233.0	797121.0	28948.0	-5821725.0
16	14	23	42	191	234.0	525738.0	24286.0	-5821311.0
16	14	23	42	206	235.0	232226.0	20108.0	-5820621.0
16	14	23	42	207	236.0	-21784.0	16015.0	-5820594.0
16	14	23	42	207	237.0	-215009.0	11889.0	-5821631.0
16	14	23	42	225	238.0	-346064.0	8018.0	-5821365.0
16	14	23	42	270	239.0	-415136.0	3868.0	-5820650.0
16	14	23	42	270	240.0	-433164.0	485.0	-5820422.0
16	14	23	42	270	241.0	-430776.0	-3571.0	-5821677.0
16	14	23	42	288	242.0	-398920.0	-7966.0	-5821724.0
16	14	23	42	289	243.0	-344016.0	-12156.0	-5821029.0
16	14	23	42	289	244.0	-295033.0	-15951.0	-5820457.0
16	14	23	42	289	245.0	-266406.0	-19073.0	-5820769.0
16	14	23	42	290	246.0	-249963.0	-22462.0	-5821934.0
16	14	23	42	290	247.0	-246010.0	-26282.0	-5821454.0
16	14	23	42	290	248.0	-257910.0	-29353.0	-5820866.0
16	14	23	42	290	249.0	-282589.0	-32522.0	-5820437.0
16	14	23	42	291	250.0	-314596.0	-35722.0	-5821615.0
16	14	23	42	291	251.0	-352830.0	-38424.0	-5821792.0
16	14	23	42	292	252.0	-387488.0	-41024.0	-5821209.0
16	14	23	42	292	254.0	-413774.0	-46317.0	-5821212.0
16	14	23	42	293	21.0	279941.0	-69646.0	-5819537.0
16	14	23	42	293	22.0	198612.0	-70294.0	-5820747.0
16	14	23	42	294	23.0	111012.0	-70404.0	-5820459.0
16	14	23	42	294	24.0	24544.0	-70091.0	-5819814.0
16	14	23	42	294	25.0	-50285.0	-69605.0	-5819527.0
16	14	23	42	295	26.0	-122058.0	-68917.0	-5820794.0
16	14	23	42	327	27.0	-183317.0	-68582.0	-5820797.0
16	14	23	42	327	28.0	-222961.0	-67956.0	-5820143.0
16	14	23	42	327	29.0	-249688.0	-66581.0	-5819613.0
16	14	23	42	328	30.0	-271281.0	-65276.0	-5820396.0
16	14	23	42	328	31.0	-289451.0	-64584.0	-5820864.0
16	14	23	42	328	32.0	-293008.0	-65082.0	-5820259.0
16	14	23	42	329	33.0	-290769.0	-64774.0	-5819647.0
16	14	23	42	329	34.0	-268787.0	-63718.0	-5820141.0
16	14	23	42	330	35.0	-249537.0	-63058.0	-5821160.0
16	14	23	42	330	36.0	-224702.0	-62732.0	-5820662.0
16	14	23	42	330	37.0	-194947.0	-61961.0	-5820001.0
16	14	23	42	331	38.0	-169264.0	-61179.0	-5819591.0
16	14	23	42	331	39.0	-141642.0	-60169.0	-5820611.0
16	14	23	42	331	40.0	-115047.0	-59092.0	-5820957.0
16	14	23	42	332	41.0	-77536.0	-57918.0	-5820287.0
16	14	23	42	332	43.0	-7554.0	-55476.0	-5820225.0
16	14	23	42	332	44.0	25352.0	-54936.0	-5820899.0
16	14	23	42	332	45.0	69449.0	-54576.0	-5820320.0
16	14	23	42	355	46.0	121149.0	-53240.0	-5819730.0
16	14	23	42	355	47.0	163753.0	-51833.0	-5819678.0
16	14	23	42	380	48.0	193204.0	-50506.0	-5820388.0
16	14	23	42	381	49.0	208744.0	-49124.0	-5819947.0
16	14	23	42	381	50.0	222176.0	-47372.0	-5819321.0
16	14	23	42	381	51.0	226044.0	-44964.0	-5819539.0
16	14	23	42	382	52.0	234826.0	-44027.0	-5820524.0
16	14	23	42	382	53.0	257492.0	-42643.0	-5820013.0
16	14	23	42	382	54.0	283519.0	-40593.0	-5819409.0
16	14	23	42	382	55.0	301968.0	-39479.0	-5819025.0
16	14	23	42	383	56.0	305414.0	-37379.0	-5820161.0
16	14	23	42	383	57.0	301396.0	-35682.0	-5820176.0
16	14	23	42	383	58.0	278816.0	-33817.0	-5819551.0
16	14	23	42	383	59.0	246088.0	-32173.0	-5818997.0
16	14	23	42	384	60.0	211086.0	-31056.0	-5820041.0
16	14	23	42	384	61.0	189211.0	-29456.0	-5820669.0
16	14	23	42	384	62.0	177482.0	-27354.0	-5820091.0
16	14	23	42	384	66.0	33339.0	-21672.0	-5820439.0
16	14	23	42	385	67.0	-19986.0	-21159.0	-5819715.0
16	14	23	42	385	68.0	-66683.0	-19597.0	-5819301.0
16	14	23	42	385	69.0	-106361.0	-17906.0	-5820324.0
16	14	23	42	385	70.0	-146767.0	-16339.0	-5820688.0
16	14	23	42	386	71.0	-187437.0	-15050.0	-5819999.0
16	14	23	42	406	72.0	-225326.0	-13720.0	-5819419.0
16	14	23	42	407	73.0	-261511.0	-12282.0	-5819574.0
16	14	23	42	407	74.0	-295708.0	-10609.0	-5820796.0
16	14	23	42	407	75.0	-323742.0	-9742.0	-5820345.0
16	14	23	42	407	76.0	-347722.0	-8131.0	-5819757.0
16	14	23	42	433	77.0	-369367.0	-7044.0	-5819505.0
16	14	23	42	434	78.0	-388836.0	-6489.0	-5820519.0
16	14	23	42	434	79.0	-408529.0	-5474.0	-5820249.0
16	14	23	42	434	80.0	-411289.0	-4591.0	-5819657.0
16	14	23	42	434	81.0	-400921.0	-4291.0	-5819773.0
16	14	23	42	435	82.0	-380226.0	-3467.0	-5820564.0
16	14	23	42	435	83.0	-350501.0	-3129.0	-5820071.0
16	14	23	42	435	84.0	-313337.0	-2269.0	-5819464.0
16	14	23	42	435	85.0	-270076.0	-1936.0	-5820003.0
16	14	23	42	436	86.0	-224695.0	-1317.0	-5821197.0
16	14	23	42	436	88.0	-132694.0	220.0	-5820104.0
16	14	23	42	436	89.0	-78302.0	169.0	-5819562.0
16	14	23	42	436	90.0	-10147.0	-548.0	-5820527.0
16	14	23	42	436	91.0	71528.0	-6.0	-5821109.0
16	14	23	42	437	92.0	170559.0	134.0	-5820533.0
16	14	23	42	437	93.0	275039.0	378.0	-5820003.0
16	14	23	42	459	94.0	360078.0	533.0	-5820812.0
16	14	23	42	460	95.0	438019.0	462.0	-5821496.0
16	14	23	42	460	96.0	500194.0	1388.0	-5820911.0
16	14	23	42	460	97.0	515506.0	1782.0	-5820254.0
16	14	23	42	461	98.0	548320.0	1740.0	-5820094.0
16	14	23	42	461	99.0	569008.0	1933.0	-5821197.0
16	14	23	42	461	100.0	572731.0	1279.0	-5820994.0
16	14	23	42	461	101.0	568275.0	774.0	-5820318.0
16	14	23	42	462	102.0	555104.0	-7.0	-5819868.0
16	14	23	42	462	103.0	524889.0	-306.0	-5820651.0
16	14	23	42	462	104.0	471712.0	-788.0	-5820988.0
16	14	23	42	462	105.0	402483.0	-1481.0	-5820322.0
16	14	23	42	462	106.0	328226.0	-1790.0	-5819751.0
16	14	23	42	463	107.0	256232.0	-2989.0	-5819674.0
16	14	23	42	463	108.0	182500.0	-3674.0	-5820318.0
16	14	23	42	463	110.0	1288.0	-4292.0	-5819346.0
16	14	23	42	463	111.0	-75539.0	-5115.0	-5820362.0
16	14	23	42	486	112.0	-141303.0	-6768.0	-5821013.0
16	14	23	42	486	113.0	-188929.0	-7619.0	-5820408.0
16	14	23	42	486	114.0	-207310.0	-8108.0	-5819768.0
16	14	23	42	486	115.0	-210174.0	-8453.0	-5819819.0
16	14	23	42	487	116.0	-243627.0	-8996.0	-5820538.0
16	14	23	42	513	117.0	-300576.0	-9536.0	-5820082.0
16	14	23	42	513	118.0	-377059.0	-9996.0	-5819439.0
16	14	23	42	513	119.0	-444249.0	-9626.0	-5819654.0
16	14	23	42	514	120.0	-493561.0	-10345.0	-5820836.0
16	14	23	42	514	121.0	-527246.0	-11127.0	-5820429.0
16	14	23	42	514	122.0	-536191.0	-11822.0	-5819786.0
16	14	23	42	514	123.0	-526044.0	-12860.0	-5819663.0
16	14	23	42	515	124.0	-526501.0	-14139.0	-5821169.0
16	14	23	42	515	125.0	-518956.0	-15164.0	-5821169.0
16	14	23	42	515	126.0	-524287.0	-16104.0	-5820532.0
16	14	23	42	515	127.0	-520388.0	-16296.0	-5819997.0
16	14	23	42	516	128.0	-495840.0	-17172.0	-5820812.0
16	14	23	42	516	129.0	-452601.0	-17758.0	-5821513.0
16	14	23	42	516	130.0	-409303.0	-18526.0	-5820903.0
16	14	23	42	517	131.0	-359316.0	-19032.0	-5820229.0
16	14	23	42	517	133.0	-270466.0	-19623.0	-5821164.0
16	14	23	42	517	134.0	-244650.0	-20871.0	-5821139.0
16	14	23	42	517	135.0	-228409.0	-21681.0	-5820496.0
16	14	23	42	518	136.0	-209069.0	-22134.0	-5819867.0
16	14	23	42	518	137.0	-192653.0	-22328.0	-5819917.0
16	14	23	42	518	138.0	-181553.0	-22730.0	-5820651.0
16	14	23	42	586	139.0	-175704.0	-23061.0	-5820211.0
16	14	23	42	586	140.0	-160435.0	-23219.0	-5819724.0
16	14	23	42	587	141.0	-138454.0	-22712.0	-5820802.0
16	14	23	42	608	142.0	-112556.0	-23116.0	-5821068.0
16	14	23	42	609	143.0	-83772.0	-23956.0	-5820436.0
16	14	23	42	609	144.0	-41542.0	-23624.0	-5819811.0
16	14	23	42	610	145.0	15969.0	-23497.0	-5820440.0
16	14	23	42	610	146.0	82007.0	-23169.0	-5821359.0
16	14	23	42	611	147.0	140621.0	-23621.0	-5820821.0
16	14	23	42	612	148.0	190659.0	-24131.0	-5820198.0
16	14	23	42	612	149.0	232326.0	-24066.0	-5819774.0
16	14	23	42	613	150.0	268304.0	-24584.0	-5820859.0
16	14	23	42	613	151.0	302480.0	-24295.0	-5821001.0
16	14	23	42	613	152.0	334209.0	-24662.0	-5820383.0
16	14	23	42	614	153.0	355578.0	-24911.0	-5819868.0
16	14	23	42	615	178.0	-1934.0	-17964.0	-5820192.0
16	14	23	42	615	179.0	-59353.0	-18554.0	-5819681.0
16	14	23	42	615	180.0	-118612.0	-18622.0	-5820672.0
16	14	23	42	616	181.0	-178986.0	-18318.0	-5820912.0
16	14	23	42	616	182.0	-234647.0	-17850.0	-5820323.0
16	14	23	42	617	183.0	-293682.0	-17464.0	-5819678.0
16	14	23	42	651	184.0	-342859.0	-17081.0	-5820489.0
16	14	23	42	651	185.0	-368259.0	-16379.0	-5821355.0
16	14	23	42	652	186.0	-393177.0	-14668.0	-5820816.0
16	14	23	42	652	187.0	-404226.0	-13531.0	-5820177.0
16	14	23	42	652	188.0	-397572.0	-12976.0	-5820067.0
16	14	23	42	652	189.0	-381736.0	-12962.0	-5821209.0
16	14	23	42	653	190.0	-353105.0	-12521.0	-5821004.0
16	14	23	42	653	191.0	-311417.0	-11963.0	-5820345.0
16	14	23	42	686	192.0	-263093.0	-11285.0	-5819888.0
16	14	23	42	686	193.0	-203819.0	-10434.0	-5820845.0
16	14	23	42	686	194.0	-133357.0	-10046.0	-5821305.0
16	14	23	42	687	195.0	-70712.0	-9827.0	-5820619.0
16	14	23	42	687	196.0	3478.0	-8872.0	-5820041.0
16	14	23	42	687	197.0	60404.0	-7969.0	-5820001.0
16	14	23	42	687	198.0	107762.0	-7598.0	-5821352.0
16	14	23	42	688	200.0	194780.0	-5959.0	-5820411.0
16	14	23	42	688	201.0	203189.0	-5495.0	-5819847.0
16	14	23	42	688	202.0	202675.0	-6172.0	-5820883.0
16	14	23	42	688	203.0	171092.0	-5704.0	-5821291.0
16	14	23	42	689	204.0	119252.0	-3377.0	-5820710.0
16	14	23	42	689	205.0	54688.0	-1584.0	-5820028.0
16	14	23	42	689	206.0	-15099.0	-1101.0	-5820564.0
16	14	23	42	689	207.0	-69168.0	-722.0	-5821344.0
16	14	23	42	690	223.0	-845991.0	8606.0	-5819757.0
16	14	23	42	690	224.0	-838271.0	7772.0	-5820898.0
16	14	23	42	690	225.0	-729076.0	8078.0	-5821049.0
16	14	23	42	690	226.0	-505828.0	8954.0	-5820506.0
16	14	23	42	691	227.0	-180919.0	9439.0	-5819832.0
16	14	23	42	721	228.0	197973.0	10114.0	-5820257.0
16	14	23	42	721	229.0	592806.0	10341.0	-5821084.0
16	14	23	42	722	230.0	953620.0	11188.0	-5820667.0
16	14	23	42	722	231.0	1193023.0	13486.0	-5819993.0
16	14	23	42	757	232.0	1265118.0	14808.0	-5819750.0
16	14	23	42	757	233.0	1156669.0	14821.0	-5820822.0
16	14	23	42	757	234.0	868923.0	15511.0	-5820794.0
16	14	23	42	757	235.0	474296.0	16172.0	-5820109.0
16	14	23	42	758	236.0	61698.0	17061.0	-5819718.0
16	14	23	42	758	237.0	-276885.0	17266.0	-5820791.0
16	14	23	42	758	238.0	-530006.0	17381.0	-5821024.0
16	14	23	42	758	239.0	-727469.0	17855.0	-5820322.0
16	14	23	42	759	240.0	-840554.0	17964.0	-5819769.0
16	14	23	42	759	241.0	-859564.0	17726.0	-5820328.0
16	14	23	42	759	242.0	-782833.0	18158.0	-5821324.0
16	14	23	42	759	243.0	-628728.0	18531.0	-5820674.0
16	14	23	42	760	245.0	-252756.0	19603.0	-5819667.0
16	14	23	42	760	246.0	-65195.0	19514.0	-5820859.0
16	14	23	42	760	247.0	129635.0	18796.0	-5821025.0
16	14	23	42	760	248.0	291757.0	18828.0	-5820464.0
16	14	23	42	761	249.0	398543.0	19138.0	-5819805.0
16	14	23	42	761	250.0	426884.0	19603.0	-5820243.0
16	14	23	42	761	251.0	361536.0	20341.0	-5821067.0
16	14	23	42	793	252.0	233719.0	20656.0	-5820610.0
16	14	23	42	794	253.0	80141.0	21263.0	-5819907.0
16	14	23	42	794	254.0	-58762.0	22139.0	-5820109.0
16	14	23	42	794	255.0	-162330.0	22413.0	-5821079.0
16	14	23	42	794	0.0	-215729.0	22506.0	-5820704.0
16	14	23	42	795	1.0	-227370.0	22118.0	-5819996.0
16	14	23	42	795	2.0	-207041.0	22160.0	-5819537.0
16	14	23	42	795	3.0	-174883.0	22367.0	-5820346.0
16	14	23	42	795	4.0	-144993.0	22496.0	-5820721.0
16	14	23	42	796	5.0	-129845.0	22197.0	-5820066.0
16	14	23	42	796	6.0	-119698.0	22488.0	-5819555.0
16	14	23	42	796	7.0	-104543.0	22593.0	-5820316.0
16	14	23	42	796	8.0	-102507.0	22149.0	-5821017.0
16	14	23	42	797	9.0	-105147.0	22144.0	-5820385.0
16	14	23	42	797	10.0	-114664.0	22389.0	-5819785.0
16	14	23	42	797	12.0	-155273.0	22651.0	-5821013.0
16	14	23	42	797	13.0	-186785.0	22119.0	-5820668.0
16	14	23	42	798	14.0	-213202.0	21624.0	-5820076.0
16	14	23	42	798	15.0	-241386.0	21188.0	-5819621.0
16	14	23	42	798	16.0	-255179.0	20929.0	-5820646.0
16	14	23	42	798	17.0	-254844.0	20768.0	-5820726.0
16	14	23	42	833	18.0	-237141.0	20550.0	-5820105.0
16	14	23	42	834	19.0	-234097.0	20895.0	-5819422.0
16	14	23	42	834	20.0	-231879.0	21717.0	-5819499.0
16	14	23	42	834	21.0	-208502.0	21719.0	-5820669.0
16	14	23	42	835	22.0	-170962.0	21744.0	-5820284.0
16	14	23	42	835	23.0	-140596.0	22037.0	-5819662.0
16	14	23	42	835	24.0	-111715.0	21794.0	-5819237.0
16	14	23	42	836	25.0	-81874.0	20924.0	-5820263.0
16	14	23	42	836	26.0	-50634.0	20999.0	-5820386.0
16	14	23	42	836	27.0	-34802.0	21437.0	-5819757.0
16	14	23	42	836	28.0	-17734.0	22156.0	-5819302.0
16	14	23	42	837	29.0	9147.0	21849.0	-5820360.0
16	14	23	42	837	30.0	36234.0	21340.0	-5820673.0
16	14	23	42	837	31.0	62851.0	20993.0	-5820039.0
16	14	23	42	837	32.0	88293.0	20858.0	-5819404.0
16	14	23	42	838	34.0	135351.0	20241.0	-5820517.0
16	14	23	42	838	35.0	152964.0	19519.0	-5819993.0
16	14	23	42	838	36.0	180264.0	18471.0	-5819351.0
16	14	23	42	838	37.0	211091.0	17988.0	-5819182.0
16	14	23	42	839	38.0	243064.0	18131.0	-5820372.0
16	14	23	42	839	39.0	278844.0	17848.0	-5820259.0
16	14	23	42	839	40.0	342176.0	17303.0	-5819564.0
16	14	23	42	873	41.0	422358.0	17268.0	-5818951.0
16	14	23	42	873	42.0	415549.0	17628.0	-5818862.0
16	14	23	42	873	43.0	398789.0	18465.0	-5819519.0
16	14	23	42	874	44.0	430664.0	18298.0	-5819086.0
16	14	23	42	874	45.0	471919.0	18293.0	-5818894.0
16	14	23	42	874	46.0	500220.0	17713.0	-5820222.0
16	14	23	42	874	47.0	539068.0	17411.0	-5820095.0
16	14	23	42	875	48.0	571046.0	17835.0	-5819482.0
16	14	23	42	875	49.0	586389.0	17784.0	-5818853.0
16	14	23	42	875	50.0	599896.0	17803.0	-5819061.0
16	14	23	42	876	51.0	616806.0	18001.0	-5819539.0
16	14	23	42	876	52.0	609683.0	18281.0	-5819021.0
16	14	23	42	876	53.0	570113.0	19056.0	-5818459.0
16	14	23	42	876	54.0	525171.0	20504.0	-5818916.0
16	14	23	42	877	55.0	486411.0	22039.0	-5819093.0
16	14	23	42	877	57.0	405863.0	25151.0	-5818315.0
16	14	23	42	877	58.0	356621.0	26308.0	-5819581.0
16	14	23	42	877	59.0	309773.0	28305.0	-5819315.0
16	14	23	42	878	60.0	267320.0	31406.0	-5818730.0
16	14	23	42	878	61.0	219604.0	34453.0	-5818292.0
16	14	23	42	878	62.0	171446.0	37718.0	-5819514.0
16	14	23	42	916	63.0	128187.0	41543.0	-5819531.0
16	14	23	42	917	64.0	86564.0	45943.0	-5818934.0
16	14	23	42	917	65.0	40874.0	50549.0	-5818266.0
16	14	23	42	917	66.0	-7674.0	54658.0	-5818964.0
16	14	23	42	918	67.0	-60757.0	58534.0	-5819861.0
16	14	23	42	918	68.0	-118464.0	62240.0	-5819369.0
16	14	23	42	918	69.0	-170768.0	65823.0	-5818696.0
16	14	23	42	918	70.0	-214261.0	70558.0	-5818269.0
16	14	23	42	919	71.0	-257677.0	74728.0	-5819379.0
16	14	23	42	919	72.0	-287730.0	78356.0	-5819974.0
16	14	23	42	919	73.0	-308204.0	82083.0	-5819314.0
16	14	23	42	920	74.0	-319020.0	86281.0	-5818781.0
16	14	23	42	920	75.0	-326891.0	90276.0	-5819517.0
16	14	23	42	920	76.0	-331316.0	93784.0	-5820448.0
16	14	23	42	920	77.0	-324885.0	97607.0	-5819832.0
16	14	23	42	921	79.0	-296827.0	104438.0	-5818912.0
16	14	23	42	921	80.0	-269734.0	107031.0	-5820142.0
16	14	23	42	921	81.0	-202149.0	109143.0	-5820055.0
16	14	23	42	921	82.0	-116529.0	111148.0	-5819457.0
16	14	23	42	922	83.0	-32146.0	113413.0	-5818777.0
16	14	23	42	922	84.0	42353.0	115864.0	-5818920.0
16	14	23	42	922	85.0	114281.0	117866.0	-5819912.0
16	14	23	42	958	86.0	177054.0	119628.0	-5819534.0
16	14	23	42	958	87.0	220882.0	121863.0	-5818914.0
16	14	23	42	959	88.0	257006.0	123949.0	-5818702.0
16	14	23	42	959	89.0	297884.0	124401.0	-5819998.0
16	14	23	42	959	90.0	330171.0	124967.0	-5819889.0
16	14	23	42	960	91.0	350506.0	125421.0	-5819242.0
16	14	23	42	960	92.0	372146.0	125350.0	-5818902.0
16	14	23	42	960	93.0	384441.0	124804.0	-5820067.0
16	14	23	42	960	94.0	401047.0	123871.0	-5820194.0
16	14	23	42	961	95.0	430153.0	122805.0	-5819559.0
16	14	23	42	961	96.0	462474.0	122084.0	-5818986.0
16	14	23	42	961	97.0	491371.0	120734.0	-5819849.0
16	14	23	42	962	98.0	517568.0	119133.0	-5820617.0
16	14	23	42	962	99.0	537793.0	117091.0	-5820004.0
16	14	23	42	962	100.0	550064.0	114604.0	-5819344.0
16	14	23	42	962	102.0	496752.0	108882.0	-5820506.0
16	14	23	43	0	103.0	458085.0	104598.0	-5820696.0
16	14	23	43	1	104.0	407579.0	100868.0	-5820046.0
16	14	23	43	1	105.0	340353.0	97451.0	-5819437.0
16	14	23	43	2	106.0	268812.0	94189.0	-5819653.0
16	14	23	43	2	107.0	181898.0	90918.0	-5820359.0
16	14	23	43	2	108.0	76570.0	87386.0	-5819854.0
16	14	23	43	2	109.0	-68368.0	84181.0	-5819296.0
16	14	23	43	3	110.0	-243929.0	81233.0	-5819834.0
16	14	23	43	3	111.0	-472101.0	77591.0	-5819920.0
16	14	23	43	3	112.0	-698972.0	73801.0	-5819347.0
16	14	23	43	4	113.0	-695246.0	69548.0	-5818884.0
16	14	23	43	4	114.0	-491234.0	65061.0	-5819961.0
16	14	23	43	4	115.0	-222389.0	60808.0	-5820054.0
16	14	23	43	4	116.0	479.0	55796.0	-5819518.0
16	14	23	43	5	117.0	177123.0	51266.0	-5818894.0
16	14	23	43	5	118.0	291781.0	47158.0	-5819017.0
16	14	23	43	44	119.0	293698.0	42531.0	-5820109.0
16	14	23	43	45	120.0	207057.0	38149.0	-5819768.0
16	14	23	43	89	121.0	77410.0	33752.0	-5819095.0
16	14	23	43	136	124.0	-304096.0	19437.0	-5820054.0
16	14	23	43	137	125.0	-378828.0	14705.0	-5819410.0
16	14	23	43	137	126.0	-430985.0	10294.0	-5818977.0
16	14	23	43	137	127.0	-446985.0	6693.0	-5819933.0
16	14	23	43	138	128.0	-440262.0	2951.0	-5820243.0
16	14	23	43	138	129.0	-409451.0	-377.0	-5819609.0
16	14	23	43	138	130.0	-336879.0	-3302.0	-5819029.0
16	14	23	43	138	131.0	-231247.0	-6909.0	-5819163.0
16	14	23	43	139	132.0	-111245.0	-10751.0	-5820530.0
16	14	23	43	139	133.0	11531.0	-14567.0	-5820210.0
16	14	23	43	139	134.0	106714.0	-17729.0	-5819567.0
16	14	23	43	140	135.0	158608.0	-20539.0	-5818971.0
16	14	23	43	140	136.0	186078.0	-23602.0	-5819216.0
16	14	23	43	140	147.0	123880.0	-51083.0	-5819501.0
16	14	23	43	140	169.0	-332255.0	-65542.0	-5819121.0
16	14	23	43	141	191.0	929.0	-50511.0	-5819502.0
16	14	23	43	141	192.0	17806.0	-49209.0	-5818956.0
16	14	23	43	141	193.0	50978.0	-49321.0	-5818849.0
16	14	23	43	142	194.0	84478.0	-48269.0	-5819625.0
16	14	23	43	142	195.0	109104.0	-46517.0	-5819191.0
16	14	23	43	183	196.0	132813.0	-45089.0	-5818578.0
16	14	23	43	183	197.0	159263.0	-43566.0	-5818670.0
16	14	23	43	184	198.0	175845.0	-41778.0	-5819413.0
16	14	23	43	184	199.0	173274.0	-40066.0	-5818918.0
16	14	23	43	184	200.0	163351.0	-37324.0	-5818296.0
16	14	23	43	184	201.0	155768.0	-35810.0	-5818542.0
16	14	23	43	185	202.0	158711.0	-34501.0	-5819079.0
16	14	23	43	185	203.0	174466.0	-32400.0	-5818563.0
16	14	23	43	185	204.0	201132.0	-30872.0	-5818632.0
16	14	23	43	185	205.0	240947.0	-29552.0	-5819946.0
16	14	23	43	186	206.0	275145.0	-28206.0	-5819567.0
16	14	23	43	186	207.0	310649.0	-26756.0	-5818942.0
16	14	23	43	186	208.0	346723.0	-25459.0	-5818347.0
16	14	23	43	187	209.0	383927.0	-23909.0	-5818952.0
16	14	23	43	187	210.0	403042.0	-21962.0	-5819053.0
16	14	23	43	187	211.0	419256.0	-20417.0	-5818456.0
16	14	23	43	187	212.0	456156.0	-19580.0	-5817956.0
16	14	23	43	188	214.0	560513.0	-16446.0	-5819279.0
16	14	23	43	188	215.0	606398.0	-16061.0	-5818705.0
16	14	23	43	188	216.0	648313.0	-15448.0	-5818158.0
16	14	23	43	189	217.0	665711.0	-14056.0	-5819312.0
16	14	23	43	189	218.0	657956.0	-12181.0	-5819787.0
16	14	23	43	189	219.0	628127.0	-10863.0	-5819228.0
16	14	23	43	231	220.0	588410.0	-9865.0	-5818564.0
16	14	23	43	232	221.0	539052.0	-8975.0	-5818974.0
16	14	23	43	232	222.0	489156.0	-6792.0	-5820015.0
16	14	23	43	232	223.0	457624.0	-5069.0	-5819596.0
16	14	23	43	232	224.0	428156.0	-4407.0	-5818883.0
16	14	23	43	233	225.0	393313.0	-3799.0	-5818710.0
16	14	23	43	233	226.0	339551.0	-3174.0	-5819943.0
16	14	23	43	233	227.0	282263.0	-2169.0	-5819823.0
16	14	23	43	234	228.0	224243.0	-1510.0	-5819129.0
16	14	23	43	234	229.0	162782.0	-1034.0	-5818547.0
16	14	23	43	234	230.0	106854.0	-824.0	-5819094.0
16	14	23	43	234	231.0	56791.0	-920.0	-5820022.0
16	14	23	43	235	232.0	18787.0	-68.0	-5819451.0
16	14	23	43	235	233.0	-10341.0	400.0	-5818846.0
16	14	23	43	235	234.0	-32507.0	1031.0	-5818719.0
16	14	23	43	236	236.0	-44515.0	773.0	-5819722.0
16	14	23	43	236	237.0	-57489.0	925.0	-5819122.0
16	14	23	43	236	238.0	-75743.0	265.0	-5818582.0
16	14	23	43	237	239.0	-100631.0	378.0	-5819741.0
16	14	23	43	237	240.0	-113469.0	286.0	-5820222.0
16	14	23	43	237	241.0	-106024.0	-14.0	-5819649.0
16	14	23	43	237	242.0	-86159.0	-349.0	-5818957.0
16	14	23	43	277	243.0	-53654.0	-601.0	-5818669.0
16	14	23	43	278	244.0	-27427.0	-574.0	-5819979.0
16	14	23	43	278	245.0	-14246.0	-68.0	-5820019.0
16	14	23	43	278	246.0	-3061.0	-366.0	-5819369.0
16	14	23	43	278	247.0	-7577.0	-119.0	-5818929.0
16	14	23	43	279	248.0	-6264.0	-1220.0	-5820078.0
16	14	23	43	279	249.0	7152.0	-1906.0	-5820441.0
16	14	23	43	279	250.0	46881.0	-2431.0	-5819803.0
16	14	23	43	280	251.0	116930.0	-2894.0	-5819212.0
16	14	23	43	280	252.0	189873.0	-2785.0	-5819747.0
16	14	23	43	280	253.0	253414.0	-3464.0	-5820956.0
16	14	23	43	280	254.0	300988.0	-4268.0	-5820440.0
16	14	23	43	281	255.0	337182.0	-4964.0	-5819814.0
16	14	23	43	281	0.0	364961.0	-6275.0	-5819687.0
16	14	23	43	281	1.0	397950.0	-6667.0	-5820945.0
16	14	23	43	282	3.0	497923.0	-7896.0	-5820039.0
16	14	23	43	282	4.0	550246.0	-9902.0	-5819406.0
16	14	23	43	282	5.0	591099.0	-11303.0	-5819742.0
16	14	23	43	283	6.0	628134.0	-12003.0	-5820898.0
16	14	23	43	283	7.0	676354.0	-12867.0	-5820425.0
16	14	23	43	283	8.0	715673.0	-13713.0	-5819809.0
16	14	23	43	325	9.0	742010.0	-14671.0	-5819367.0
16	14	23	43	326	10.0	767675.0	-15168.0	-5820497.0
16	14	23	43	326	11.0	779648.0	-14984.0	-5820656.0
16	14	23	43	326	12.0	785179.0	-14959.0	-5820026.0
16	14	23	43	327	13.0	779287.0	-14789.0	-5819467.0
16	14	23	43	327	14.0	753434.0	-15546.0	-5820369.0
16	14	23	43	327	15.0	709033.0	-16299.0	-5820861.0
16	14	23	43	327	16.0	642820.0	-17124.0	-5820264.0
16	14	23	43	328	17.0	549852.0	-17544.0	-5819574.0
16	14	23	43	328	18.0	433633.0	-18976.0	-5819860.0
16	14	23	43	328	19.0	313196.0	-19280.0	-5821051.0
16	14	23	43	328	20.0	208546.0	-19289.0	-5820673.0
16	14	23	43	329	21.0	114446.0	-19376.0	-5819969.0
16	14	23	43	329	22.0	30698.0	-19823.0	-5819552.0
16	14	23	43	329	23.0	-52873.0	-20232.0	-5820729.0
16	14	23	43	330	25.0	-203159.0	-22051.0	-5820476.0
16	14	23	43	330	26.0	-284965.0	-22521.0	-5819887.0
16	14	23	43	330	27.0	-365797.0	-23772.0	-5819923.0
16	14	23	43	330	28.0	-439827.0	-24372.0	-5820806.0
16	14	23	43	331	29.0	-501158.0	-25152.0	-5820354.0
16	14	23	43	331	30.0	-545357.0	-25541.0	-5819743.0
16	14	23	43	331	31.0	-593095.0	-25974.0	-5820029.0
16	14	23	43	374	32.0	-623712.0	-25857.0	-5820598.0
16	14	23	43	375	33.0	-659347.0	-25567.0	-5820075.0
16	14	23	43	375	34.0	-687891.0	-24854.0	-5819450.0
16	14	23	43	425	35.0	-708872.0	-24479.0	-5820278.0
16	14	23	43	426	36.0	-709592.0	-24392.0	-5821250.0
16	14	23	43	426	37.0	-702767.0	-25081.0	-5820710.0
16	14	23	43	426	38.0	-695810.0	-25336.0	-5820072.0
16	14	23	43	426	39.0	-691295.0	-25142.0	-5819887.0
16	14	23	43	427	40.0	-688854.0	-24571.0	-5821264.0
16	14	23	43	427	41.0	-691017.0	-24749.0	-5821159.0
16	14	23	43	427	42.0	-688100.0	-24402.0	-5820540.0
16	14	23	43	428	43.0	-695496.0	-23818.0	-5820091.0
16	14	23	43	428	44.0	-703695.0	-23815.0	-5820999.0
16	14	23	43	428	45.0	-704539.0	-24562.0	-5821226.0
16	14	23	43	428	46.0	-700702.0	-24319.0	-5820594.0
16	14	23	43	429	48.0	-659642.0	-24314.0	-5820731.0
16	14	23	43	429	49.0	-634828.0	-24747.0	-5821529.0
16	14	23	43	429	50.0	-618539.0	-24057.0	-5820936.0
16	14	23	43	429	70.0	12644.0	-15481.0	-5821242.0
16	14	23	43	430	71.0	70913.0	-15012.0	-5821329.0
16	14	23	43	430	72.0	146216.0	-14918.0	-5820737.0
16	14	23	43	430	73.0	209933.0	-14735.0	-5820133.0
16	14	23	43	431	74.0	264491.0	-13999.0	-5820891.0
16	14	23	43	431	75.0	303656.0	-13896.0	-5821714.0
16	14	23	43	431	76.0	348865.0	-13434.0	-5821156.0
16	14	23	43	477	77.0	389124.0	-12651.0	-5820498.0
16	14	23	43	478	78.0	435696.0	-11529.0	-5820946.0
16	14	23	43	478	79.0	484866.0	-10542.0	-5821899.0
16	14	23	43	478	80.0	516934.0	-10019.0	-5821425.0
16	14	23	43	479	81.0	544432.0	-8984.0	-5820737.0
16	14	23	43	479	82.0	577232.0	-8539.0	-5820218.0
16	14	23	43	479	83.0	572184.0	-7905.0	-5820979.0
16	14	23	43	479	84.0	541979.0	-6592.0	-5821512.0
16	14	23	43	480	85.0	512676.0	-5621.0	-5820861.0
16	14	23	43	480	86.0	487478.0	-4982.0	-5820265.0
16	14	23	43	480	87.0	469613.0	-4057.0	-5820250.0
16	14	23	43	481	88.0	451811.0	-3883.0	-5821699.0
16	14	23	43	481	89.0	445759.0	-3312.0	-5821379.0
16	14	23	43	481	90.0	427810.0	-2760.0	-5820783.0
16	14	23	43	482	91.0	393223.0	-2209.0	-5820806.0
16	14	23	43	531	93.0	315475.0	-1075.0	-5821599.0
16	14	23	43	532	108.0	285181.0	8348.0	-5820634.0
16	14	23	43	532	109.0	342630.0	8072.0	-5821541.0
16	14	23	43	532	110.0	395148.0	8448.0	-5821832.0
16	14	23	43	533	111.0	449587.0	9091.0	-5821112.0
16	14	23	43	533	112.0	495333.0	10031.0	-5820574.0
16	14	23	43	533	113.0	541202.0	10966.0	-5821176.0
16	14	23	43	533	114.0	588574.0	11913.0	-5821988.0
16	14	23	43	534	115.0	643030.0	13477.0	-5821332.0
16	14	23	43	534	116.0	684540.0	13612.0	-5820736.0
16	14	23	43	534	117.0	716320.0	13066.0	-5820228.0
16	14	23	43	535	118.0	748734.0	14941.0	-5821366.0
16	14	23	43	535	119.0	787494.0	15780.0	-5821511.0
16	14	23	43	535	120.0	861816.0	16052.0	-5820922.0
16	14	23	43	535	121.0	953815.0	16621.0	-5820213.0
16	14	23	43	536	122.0	1057438.0	16736.0	-5820584.0
16	14	23	43	536	123.0	1180907.0	17008.0	-5821647.0
16	14	23	43	536	124.0	1328350.0	16546.0	-5821261.0
16	14	23	43	537	125.0	1500014.0	16348.0	-5820566.0
16	14	23	43	537	126.0	1660918.0	16423.0	-5820886.0
16	14	23	43	537	127.0	1747769.0	18134.0	-5821785.0
16	14	23	43	538	128.0	1702518.0	18951.0	-5821357.0
16	14	23	43	538	129.0	1490879.0	18815.0	-5820643.0
16	14	23	43	538	130.0	1177533.0	19157.0	-5820241.0
16	14	23	43	538	131.0	918709.0	19189.0	-5821323.0
16	14	23	43	539	132.0	938050.0	18418.0	-5821587.0
16	14	23	43	539	133.0	1200544.0	18793.0	-5820924.0
16	14	23	43	539	134.0	1619019.0	19639.0	-5820371.0
16	14	23	43	540	135.0	2099218.0	20462.0	-5821026.0
16	14	23	43	540	136.0	2568432.0	21221.0	-5822091.0
16	14	23	43	587	137.0	3003636.0	21262.0	-5821571.0
16	14	23	43	587	138.0	3393045.0	21139.0	-5820986.0
16	14	23	43	587	139.0	3720780.0	19906.0	-5820780.0
16	14	23	43	588	140.0	3929154.0	19304.0	-5822174.0
16	14	23	43	588	141.0	3936041.0	20500.0	-5822049.0
16	14	23	43	588	142.0	3685634.0	21798.0	-5821406.0
16	14	23	43	589	143.0	3149085.0	22656.0	-5820774.0
16	14	23	43	589	144.0	2332535.0	22381.0	-5821541.0
16	14	23	43	589	145.0	1343372.0	22530.0	-5821911.0
16	14	23	43	589	146.0	357390.0	21915.0	-5821197.0
16	14	23	43	590	147.0	-513677.0	20495.0	-5820413.0
16	14	23	43	590	148.0	-1277579.0	20536.0	-5820461.0
16	14	23	43	590	149.0	-1852294.0	21386.0	-5821397.0
16	14	23	43	591	150.0	-2202643.0	22309.0	-5820935.0
16	14	23	43	591	151.0	-2395032.0	22111.0	-5820257.0
16	14	23	43	592	152.0	-2447916.0	21976.0	-5819824.0
16	14	23	43	592	153.0	-2409642.0	21793.0	-5820834.0
16	14	23	43	592	154.0	-2352825.0	20756.0	-5820955.0
16	14	23	43	593	155.0	-2286732.0	20590.0	-5820308.0
16	14	23	43	593	156.0	-2327507.0	21190.0	-5819911.0
16	14	23	43	593	157.0	-2439359.0	21319.0	-5820992.0
16	14	23	43	594	158.0	-2521896.0	21050.0	-5821149.0
16	14	23	43	594	159.0	-2540255.0	20974.0	-5820489.0
16	14	23	43	594	160.0	-2512509.0	20921.0	-5819882.0
16	14	23	43	595	161.0	-2447765.0	19983.0	-5820728.0
16	14	23	43	595	162.0	-2386999.0	19030.0	-5821446.0
16	14	23	43	595	163.0	-2312723.0	19449.0	-5820855.0
16	14	23	43	596	164.0	-2185179.0	20825.0	-5820208.0
16	14	23	43	596	165.0	-1995969.0	20856.0	-5820056.0
16	14	23	43	596	166.0	-1767461.0	20643.0	-5821384.0
16	14	23	43	596	167.0	-1534317.0	20124.0	-5821335.0
16	14	23	43	597	168.0	-1327257.0	20386.0	-5820682.0
16	14	23	43	638	169.0	-1138374.0	19110.0	-5820102.0
16	14	23	43	639	170.0	-964984.0	18713.0	-5820022.0
16	14	23	43	639	171.0	-813931.0	19337.0	-5820687.0
16	14	23	43	640	172.0	-677325.0	19273.0	-5820249.0
16	14	23	43	640	173.0	-548887.0	18979.0	-5820103.0
16	14	23	43	640	174.0	-419185.0	18545.0	-5821336.0
16	14	23	43	641	175.0	-254351.0	18096.0	-5821080.0
16	14	23	43	641	176.0	-81220.0	17534.0	-5820472.0
16	14	23	43	641	177.0	33879.0	16993.0	-5819890.0
16	14	23	43	641	178.0	104353.0	16961.0	-5820402.0
16	14	23	43	642	179.0	163908.0	17460.0	-5820779.0
16	14	23	43	642	180.0	215469.0	17686.0	-5820187.0
16	14	23	43	642	181.0	257226.0	16992.0	-5819592.0
16	14	23	43	643	182.0	270435.0	16429.0	-5820111.0
16	14	23	43	643	183.0	266645.0	15838.0	-5820516.0
16	14	23	43	643	184.0	254311.0	14407.0	-5819952.0
16	14	23	43	643	185.0	247382.0	14015.0	-5819479.0
16	14	23	43	644	186.0	252384.0	14899.0	-5820769.0
16	14	23	43	644	187.0	263626.0	14955.0	-5820999.0
16	14	23	43	644	188.0	276138.0	14612.0	-5820427.0
16	14	23	43	644	189.0	270713.0	13926.0	-5819903.0
16	14	23	43	645	190.0	253799.0	13351.0	-5820589.0
16	14	23	43	645	191.0	244448.0	12172.0	-5820510.0
16	14	23	43	687	192.0	240109.0	10899.0	-5819941.0
16	14	23	43	688	193.0	209468.0	10811.0	-5819590.0
16	14	23	43	688	194.0	150281.0	11204.0	-5820732.0
16	14	23	43	688	195.0	92743.0	11236.0	-5820546.0
16	14	23	43	689	196.0	65540.0	10523.0	-5819951.0
16	14	23	43	689	197.0	40034.0	9606.0	-5819298.0
16	14	23	43	689	198.0	8691.0	8822.0	-5820010.0
16	14	23	43	689	199.0	-16357.0	7846.0	-5820752.0
16	14	23	43	690	200.0	-4030.0	7599.0	-5820234.0
16	14	23	43	690	201.0	15716.0	8444.0	-5819556.0
16	14	23	43	690	202.0	-7585.0	8713.0	-5819464.0
16	14	23	43	691	203.0	-62837.0	8544.0	-5820537.0
16	14	23	43	691	204.0	-136729.0	7664.0	-5820337.0
16	14	23	43	691	205.0	-221272.0	7840.0	-5819633.0
16	14	23	43	692	206.0	-303866.0	7350.0	-5819372.0
16	14	23	43	692	207.0	-374728.0	6331.0	-5820432.0
16	14	23	43	692	208.0	-420563.0	6038.0	-5820416.0
16	14	23	43	692	209.0	-461327.0	6891.0	-5819734.0
16	14	23	43	693	210.0	-512711.0	6943.0	-5819171.0
16	14	23	43	693	211.0	-570995.0	7134.0	-5819485.0
16	14	23	43	693	212.0	-628010.0	7164.0	-5820439.0
16	14	23	43	694	213.0	-662403.0	7219.0	-5819884.0
16	14	23	43	738	214.0	-675076.0	6204.0	-5819304.0
16	14	23	43	738	215.0	-668862.0	6680.0	-5819264.0
16	14	23	43	739	216.0	-605221.0	7728.0	-5820623.0
16	14	23	43	739	217.0	-487386.0	8826.0	-5820314.0
16	14	23	43	739	218.0	-326236.0	10245.0	-5819690.0
16	14	23	43	740	219.0	-172142.0	11806.0	-5819122.0
16	14	23	43	740	220.0	-36669.0	12515.0	-5819734.0
16	14	23	43	740	221.0	73184.0	13627.0	-5819886.0
16	14	23	43	741	222.0	167713.0	15059.0	-5819342.0
16	14	23	43	741	223.0	237488.0	17592.0	-5818939.0
16	14	23	43	741	224.0	285942.0	20993.0	-5819843.0
16	14	23	43	742	225.0	317581.0	23601.0	-5819697.0
16	14	23	43	742	226.0	308635.0	26826.0	-5819099.0
16	14	23	43	742	227.0	277330.0	29877.0	-5818863.0
16	14	23	43	742	228.0	240423.0	32959.0	-5820131.0
16	14	23	43	743	229.0	201294.0	35382.0	-5819858.0
16	14	23	43	743	230.0	139592.0	38791.0	-5819266.0
16	14	23	43	743	231.0	47254.0	43128.0	-5818652.0
16	14	23	43	744	232.0	-73776.0	47008.0	-5819597.0
16	14	23	43	744	233.0	-209911.0	50816.0	-5820088.0
16	14	23	43	744	234.0	-362857.0	54749.0	-5819517.0
16	14	23	43	744	235.0	-522087.0	58953.0	-5818909.0
16	14	23	43	745	236.0	-663744.0	62339.0	-5819801.0
16	14	23	43	788	237.0	-771842.0	65319.0	-5820261.0
16	14	23	43	789	238.0	-838325.0	69676.0	-5819679.0
16	14	23	43	789	239.0	-894248.0	74951.0	-5818976.0
16	14	23	43	790	240.0	-930907.0	78853.0	-5819224.0
16	14	23	43	790	241.0	-928934.0	82522.0	-5820266.0
16	14	23	43	790	242.0	-878654.0	86268.0	-5819921.0
16	14	23	43	791	243.0	-781058.0	89364.0	-5819191.0
16	14	23	43	791	244.0	-630268.0	92099.0	-5818729.0
16	14	23	43	792	245.0	-442980.0	95322.0	-5819634.0
16	14	23	43	792	246.0	-279012.0	99009.0	-5820106.0
16	14	23	43	792	247.0	-161963.0	102274.0	-5819459.0
16	14	23	43	792	248.0	-87211.0	104486.0	-5818919.0
16	14	23	43	793	249.0	-45216.0	106706.0	-5819194.0
16	14	23	43	793	250.0	-20697.0	108937.0	-5820317.0
16	14	23	43	793	251.0	5304.0	110353.0	-5819821.0
16	14	23	43	794	252.0	21345.0	111306.0	-5819258.0
16	14	23	43	794	253.0	26872.0	112930.0	-5818804.0
16	14	23	43	794	254.0	40611.0	114923.0	-5819589.0
16	14	23	43	794	255.0	70511.0	116288.0	-5819379.0
16	14	23	43	795	0.0	98702.0	117239.0	-5818822.0
16	14	23	43	795	1.0	129028.0	117503.0	-5819254.0
16	14	23	43	795	2.0	156223.0	117121.0	-5820332.0
16	14	23	43	796	3.0	189277.0	116403.0	-5819738.0
16	14	23	43	796	4.0	207713.0	115690.0	-5819162.0
16	14	23	43	796	5.0	197137.0	115846.0	-5818664.0
16	14	23	43	797	6.0	198366.0	115023.0	-5819895.0
16	14	23	43	797	7.0	232312.0	113692.0	-5820099.0
16	14	23	43	797	8.0	264834.0	112643.0	-5819542.0
16	14	23	43	797	9.0	291074.0	110964.0	-5818841.0
16	14	23	43	798	10.0	312263.0	108804.0	-5819362.0
16	14	23	43	841	11.0	321683.0	106105.0	-5820359.0
16	14	23	43	841	12.0	301966.0	103775.0	-5819897.0
16	14	23	43	841	13.0	271307.0	102453.0	-5819191.0
16	14	23	43	842	14.0	253820.0	99863.0	-5819587.0
16	14	23	43	842	15.0	207287.0	97212.0	-5820609.0
16	14	23	43	843	16.0	125815.0	94713.0	-5820212.0
16	14	23	43	843	17.0	5498.0	91272.0	-5819537.0
16	14	23	43	843	18.0	-192729.0	87361.0	-5819083.0
16	14	23	43	844	19.0	-506560.0	83758.0	-5820007.0
16	14	23	43	844	20.0	-907958.0	80910.0	-5820521.0
16	14	23	43	844	21.0	-1128980.0	77169.0	-5819834.0
16	14	23	43	845	22.0	-1006421.0	73091.0	-5819304.0
16	14	23	43	845	23.0	-614526.0	69221.0	-5819867.0
16	14	23	43	845	24.0	-188293.0	65421.0	-5820851.0
16	14	23	43	846	25.0	154906.0	60459.0	-5820286.0
16	14	23	43	846	26.0	370707.0	55676.0	-5819739.0
16	14	23	43	846	27.0	441894.0	51814.0	-5819533.0
16	14	23	43	847	28.0	340488.0	49168.0	-5820732.0
16	14	23	43	847	29.0	125721.0	45090.0	-5820501.0
16	14	23	43	847	30.0	-134806.0	40393.0	-5819904.0
16	14	23	43	847	31.0	-379767.0	36376.0	-5819362.0
16	14	23	43	848	32.0	-548505.0	32099.0	-5820401.0
16	14	23	43	848	33.0	-668019.0	26658.0	-5820621.0
16	14	23	43	848	34.0	-744847.0	22495.0	-5820029.0
16	14	23	43	849	35.0	-752285.0	19237.0	-5819327.0
16	14	23	43	849	36.0	-685591.0	15575.0	-5819404.0
16	14	23	43	850	37.0	-539124.0	11507.0	-5820471.0
16	14	23	43	850	38.0	-366082.0	7319.0	-5820178.0
16	14	23	43	850	39.0	-221502.0	4241.0	-5819528.0
16	14	23	43	851	40.0	-91821.0	-142.0	-5819071.0
16	14	23	43	892	41.0	58336.0	-4401.0	-5820246.0
16	14	23	43	893	42.0	213362.0	-7336.0	-5820856.0
16	14	23	43	893	43.0	386866.0	-10029.0	-5820238.0
16	14	23	43	893	44.0	572076.0	-13156.0	-5819704.0
16	14	23	43	894	45.0	709138.0	-16632.0	-5820146.0
16	14	23	43	894	46.0	765223.0	-19399.0	-5821156.0
16	14	23	43	894	47.0	743323.0	-23262.0	-5820616.0
16	14	23	43	895	48.0	648333.0	-27116.0	-5819992.0
16	14	23	43	895	49.0	500293.0	-29506.0	-5819678.0
16	14	23	43	895	50.0	332431.0	-31457.0	-5820761.0
16	14	23	43	895	51.0	154033.0	-34059.0	-5820646.0
16	14	23	43	896	52.0	-43394.0	-36642.0	-5819994.0
16	14	23	43	896	53.0	-260418.0	-39357.0	-5819376.0
16	14	23	43	896	54.0	-473461.0	-40972.0	-5819967.0
16	14	23	43	949	55.0	-651847.0	-42824.0	-5820914.0
16	14	23	43	949	56.0	-769252.0	-44660.0	-5820370.0
16	14	23	43	950	57.0	-795504.0	-47199.0	-5819725.0
16	14	23	43	950	58.0	-732149.0	-48386.0	-5819719.0
16	14	23	43	951	59.0	-591130.0	-50528.0	-5820887.0
16	14	23	43	951	60.0	-403749.0	-52406.0	-5820626.0
16	14	23	43	951	61.0	-228479.0	-53754.0	-5819989.0
16	14	23	43	952	62.0	-110405.0	-55141.0	-5819663.0
16	14	23	43	952	63.0	-47231.0	-57006.0	-5820722.0
16	14	23	43	953	64.0	-33732.0	-57951.0	-5820604.0
16	14	23	43	953	65.0	-49981.0	-58812.0	-5819974.0
16	14	23	43	953	66.0	-80932.0	-59509.0	-5819374.0
16	14	23	43	954	67.0	-92247.0	-60231.0	-5819792.0
16	14	23	43	954	68.0	-100234.0	-60644.0	-5820722.0
16	14	23	43	954	69.0	-90806.0	-60933.0	-5820242.0
16	14	23	43	955	70.0	-9289.0	-62371.0	-5819601.0
16	14	23	43	955	71.0	94098.0	-62015.0	-5819557.0
16	14	23	43	955	72.0	163845.0	-61342.0	-5820577.0
16	14	23	43	956	73.0	238213.0	-61963.0	-5820286.0
16	14	23	43	956	74.0	322177.0	-62271.0	-5819664.0
16	14	23	43	956	75.0	388158.0	-62148.0	-5819524.0
16	14	23	43	957	76.0	415752.0	-61827.0	-5820894.0
16	14	23	43	957	77.0	424234.0	-61622.0	-5820805.0
16	14	23	43	957	78.0	426286.0	-62782.0	-5820136.0
16	14	23	43	958	79.0	413884.0	-62580.0	-5819512.0
16	14	23	43	958	80.0	386424.0	-62027.0	-5819585.0
16	14	23	43	958	81.0	341987.0	-60631.0	-5820073.0
16	14	23	43	959	82.0	281088.0	-60324.0	-5819519.0
16	14	23	43	959	83.0	202392.0	-60603.0	-5818928.0
16	14	23	43	959	84.0	126942.0	-60546.0	-5819891.0
16	14	23	43	960	85.0	62531.0	-60944.0	-5820521.0
16	14	23	43	960	86.0	21906.0	-61019.0	-5819887.0
16	14	23	44	7	87.0	-7652.0	-59846.0	-5819262.0
16	14	23	44	8	88.0	-26042.0	-58868.0	-5819092.0
16	14	23	44	8	89.0	-18652.0	-58670.0	-5820247.0
16	14	23	44	8	90.0	381.0	-58099.0	-5819979.0
16	14	23	44	9	91.0	25786.0	-57366.0	-5819382.0
16	14	23	44	9	92.0	51662.0	-56957.0	-5819135.0
16	14	23	44	9	93.0	89061.0	-56990.0	-5820270.0
16	14	23	44	10	94.0	122841.0	-56201.0	-5820096.0
16	14	23	44	10	95.0	153739.0	-54397.0	-5819510.0
16	14	23	44	10	96.0	187265.0	-53054.0	-5818946.0
16	14	23	44	11	97.0	251608.0	-51892.0	-5819839.0
16	14	23	44	11	98.0	336669.0	-50718.0	-5820316.0
16	14	23	44	12	99.0	392348.0	-49604.0	-5819708.0
16	14	23	44	12	100.0	418831.0	-49175.0	-5819017.0
16	14	23	44	12	101.0	435813.0	-47197.0	-5819161.0
16	14	23	44	12	102.0	440966.0	-45654.0	-5820356.0
16	14	23	44	13	103.0	442261.0	-44783.0	-5820047.0
16	14	23	44	13	104.0	441312.0	-43429.0	-5819348.0
16	14	23	44	13	105.0	398784.0	-42086.0	-5818869.0
16	14	23	44	14	106.0	336231.0	-39943.0	-5819752.0
16	14	23	44	14	107.0	276761.0	-38812.0	-5820195.0
16	14	23	44	14	108.0	251197.0	-38133.0	-5819549.0
16	14	23	44	14	109.0	227330.0	-36417.0	-5819017.0
16	14	23	44	15	110.0	176979.0	-35197.0	-5819476.0
16	14	23	44	15	111.0	106003.0	-33275.0	-5820326.0
16	14	23	44	15	112.0	25177.0	-30187.0	-5819715.0
16	14	23	44	15	113.0	-54008.0	-28433.0	-5819104.0
16	14	23	44	16	114.0	-121164.0	-27301.0	-5819011.0
16	14	23	44	16	115.0	-170330.0	-26316.0	-5820269.0
16	14	23	44	16	116.0	-235004.0	-24406.0	-5819912.0
16	14	23	44	17	117.0	-317139.0	-22072.0	-5819350.0
16	14	23	44	17	118.0	-417071.0	-20230.0	-5818634.0
16	14	23	44	17	119.0	-524882.0	-18927.0	-5819077.0
16	14	23	44	17	120.0	-613802.0	-17484.0	-5820218.0
16	14	23	44	18	121.0	-674667.0	-15590.0	-5819817.0
16	14	23	44	18	122.0	-696569.0	-14752.0	-5819104.0
16	14	23	44	67	123.0	-683481.0	-14233.0	-5818981.0
16	14	23	44	67	124.0	-629730.0	-12810.0	-5819931.0
16	14	23	44	68	125.0	-550469.0	-10792.0	-5819716.0
16	14	23	44	68	126.0	-458464.0	-8936.0	-5819007.0
16	14	23	44	68	127.0	-365264.0	-7701.0	-5818674.0
16	14	23	44	69	128.0	-278004.0	-6095.0	-5819831.0
16	14	23	44	69	129.0	-209239.0	-4944.0	-5820139.0
16	14	23	44	69	130.0	-153222.0	-5101.0	-5819428.0
16	14	23	44	69	131.0	-113623.0	-4219.0	-5818842.0
16	14	23	44	70	132.0	-76909.0	-3022.0	-5819132.0
16	14	23	44	70	133.0	-35637.0	-899.0	-5820289.0
16	14	23	44	70	134.0	310.0	-246.0	-5819802.0
16	14	23	44	71	135.0	26089.0	158.0	-5819208.0
16	14	23	44	71	136.0	39194.0	623.0	-5818645.0
16	14	23	44	71	137.0	50959.0	958.0	-5819401.0
16	14	23	44	71	138.0	56566.0	1335.0	-5819513.0
16	14	23	44	72	139.0	63691.0	2282.0	-5818962.0
16	14	23	44	72	140.0	71564.0	3272.0	-5818714.0
16	14	23	44	72	141.0	80772.0	4119.0	-5819648.0
16	14	23	44	73	142.0	87082.0	4886.0	-5819357.0
16	14	23	44	73	143.0	92943.0	4343.0	-5818766.0
16	14	23	44	73	144.0	93891.0	4284.0	-5819174.0
16	14	23	44	73	145.0	102761.0	3399.0	-5819944.0
16	14	23	44	129	146.0	124254.0	3175.0	-5819369.0
16	14	23	44	129	147.0	170159.0	3917.0	-5818741.0
16	14	23	44	130	148.0	279838.0	5350.0	-5818428.0
16	14	23	44	130	149.0	386511.0	5128.0	-5819709.0
16	14	23	44	130	150.0	438626.0	4721.0	-5819552.0
16	14	23	44	131	151.0	448068.0	4439.0	-5818982.0
16	14	23	44	131	152.0	409114.0	3833.0	-5818406.0
16	14	23	44	131	153.0	336279.0	3825.0	-5819520.0
16	14	23	44	132	154.0	266583.0	3600.0	-5819961.0
16	14	23	44	132	155.0	214906.0	3580.0	-5819382.0
16	14	23	44	132	156.0	179259.0	2631.0	-5818699.0
16	14	23	44	133	157.0	165356.0	1986.0	-5818939.0
16	14	23	44	133	158.0	159957.0	1975.0	-5819971.0
16	14	23	44	133	159.0	157330.0	766.0	-5819619.0
16	14	23	44	134	160.0	149764.0	-1120.0	-5818949.0
16	14	23	44	134	161.0	129532.0	-2027.0	-5819044.0
16	14	23	44	134	162.0	106889.0	-2781.0	-5820372.0
16	14	23	44	134	163.0	98961.0	-3702.0	-5820152.0
16	14	23	44	135	164.0	110093.0	-4562.0	-5819431.0
16	14	23	44	135	165.0	138739.0	-4887.0	-5818950.0
16	14	23	44	135	166.0	175121.0	-4719.0	-5819732.0
16	14	23	44	135	167.0	208393.0	-5177.0	-5820504.0
16	14	23	44	136	168.0	232764.0	-5324.0	-5819870.0
16	14	23	44	136	169.0	237758.0	-6466.0	-5819273.0
16	14	23	44	136	170.0	223578.0	-7699.0	-5819162.0
16	14	23	44	137	171.0	197723.0	-9055.0	-5820666.0
16	14	23	44	137	172.0	177994.0	-10254.0	-5820434.0
16	14	23	44	137	173.0	165600.0	-11354.0	-5819847.0
16	14	23	44	138	174.0	159234.0	-12208.0	-5819326.0
16	14	23	44	138	175.0	132891.0	-13719.0	-5820142.0
16	14	23	44	138	176.0	58747.0	-14672.0	-5820146.0
16	14	23	44	192	177.0	-52881.0	-15406.0	-5819571.0
16	14	23	44	192	178.0	-176415.0	-15185.0	-5818942.0
16	14	23	44	193	179.0	-293595.0	-15562.0	-5819820.0
16	14	23	44	193	180.0	-397622.0	-16671.0	-5820237.0
16	14	23	44	193	181.0	-479699.0	-17814.0	-5819644.0
16	14	23	44	194	182.0	-538631.0	-18775.0	-5818979.0
16	14	23	44	194	183.0	-580053.0	-19880.0	-5819645.0
16	14	23	44	195	184.0	-603896.0	-20049.0	-5820572.0
16	14	23	44	195	185.0	-611374.0	-19632.0	-5820096.0
16	14	23	44	195	186.0	-591206.0	-20102.0	-5819431.0
16	14	23	44	196	187.0	-547363.0	-20339.0	-5819810.0
16	14	23	44	196	188.0	-462359.0	-20539.0	-5820851.0
16	14	23	44	196	189.0	-343515.0	-20747.0	-5820439.0
16	14	23	44	197	190.0	-231502.0	-22127.0	-5819739.0
16	14	23	44	197	191.0	-153456.0	-22986.0	-5819496.0
16	14	23	44	197	192.0	-91942.0	-22714.0	-5820647.0
16	14	23	44	197	193.0	-37046.0	-22583.0	-5820657.0
16	14	23	44	198	194.0	25796.0	-22946.0	-5819979.0
16	14	23	44	198	195.0	114766.0	-23239.0	-5819413.0
16	14	23	44	198	196.0	221159.0	-23453.0	-5820139.0
16	14	23	44	199	197.0	329846.0	-24549.0	-5821081.0
16	14	23	44	199	198.0	450291.0	-25711.0	-5820511.0
16	14	23	44	199	199.0	546252.0	-25912.0	-5819915.0
16	14	23	44	199	200.0	595504.0	-25287.0	-5819689.0
16	14	23	44	200	201.0	598608.0	-25581.0	-5821032.0
16	14	23	44	200	202.0	582568.0	-25636.0	-5820878.0
16	14	23	44	200	203.0	556843.0	-25520.0	-5820258.0
16	14	23	44	201	204.0	532982.0	-25961.0	-5819639.0
16	14	23	44	201	205.0	516081.0	-26515.0	-5820249.0
16	14	23	44	201	206.0	485033.0	-26708.0	-5820589.0
16	14	23	44	202	207.0	436152.0	-25932.0	-5820022.0
16	14	23	44	202	208.0	371510.0	-25187.0	-5819605.0
16	14	23	44	202	209.0	305293.0	-25210.0	-5820523.0
16	14	23	44	202	210.0	254153.0	-25132.0	-5820334.0
16	14	23	44	203	211.0	210833.0	-24677.0	-5819729.0
16	14	23	44	203	212.0	164656.0	-25368.0	-5819347.0
16	14	23	44	256	213.0	114766.0	-26027.0	-5820519.0
16	14	23	44	257	214.0	61728.0	-25571.0	-5820406.0
16	14	23	44	257	215.0	7659.0	-24307.0	-5819824.0
16	14	23	44	257	216.0	-57744.0	-23634.0	-5819171.0
16	14	23	44	258	217.0	-124917.0	-23330.0	-5819942.0
16	14	23	44	258	218.0	-196299.0	-23470.0	-5820710.0
16	14	23	44	258	219.0	-265543.0	-23739.0	-5820192.0
16	14	23	44	259	220.0	-336506.0	-24297.0	-5819505.0
16	14	23	44	259	221.0	-402160.0	-24085.0	-5819968.0
16	14	23	44	259	222.0	-451866.0	-22680.0	-5820875.0
16	14	23	44	259	223.0	-494317.0	-22010.0	-5820416.0
16	14	23	44	260	224.0	-527499.0	-21821.0	-5819706.0
16	14	23	44	260	225.0	-551537.0	-21526.0	-5819664.0
16	14	23	44	260	226.0	-551932.0	-21056.0	-5820951.0
16	14	23	44	260	227.0	-519184.0	-20976.0	-5820802.0
16	14	23	44	261	228.0	-458644.0	-21221.0	-5820098.0
16	14	23	44	261	229.0	-392234.0	-20608.0	-5819582.0
16	14	23	44	261	230.0	-324319.0	-19171.0	-5820179.0
16	14	23	44	262	231.0	-256191.0	-18150.0	-5820782.0
16	14	23	44	262	232.0	-183103.0	-17910.0	-5820136.0
16	14	23	44	262	233.0	-81047.0	-18084.0	-5819553.0
16	14	23	44	263	234.0	28683.0	-17904.0	-5819814.0
16	14	23	44	263	235.0	96978.0	-18072.0	-5821212.0
16	14	23	44	263	236.0	130118.0	-17881.0	-5820792.0
16	14	23	44	263	237.0	139793.0	-16476.0	-5820214.0
16	14	23	44	264	238.0	124796.0	-15843.0	-5819736.0
16	14	23	44	264	239.0	124137.0	-15389.0	-5820351.0
16	14	23	44	266	240.0	154008.0	-14961.0	-5820156.0
16	14	23	44	266	241.0	183299.0	-14510.0	-5819582.0
16	14	23	44	267	242.0	197321.0	-14494.0	-5819628.0
16	14	23	44	267	243.0	181573.0	-14549.0	-5820931.0
16	14	23	44	267	244.0	129761.0	-13789.0	-5820507.0
16	14	23	44	268	245.0	52388.0	-12121.0	-5819914.0
16	14	23	44	268	246.0	-19572.0	-11040.0	-5819306.0
16	14	23	44	269	247.0	-88222.0	-9859.0	-5820241.0
16	14	23	44	269	248.0	-134731.0	-9913.0	-5820706.0
16	14	23	44	270	249.0	-144081.0	-9496.0	-5820155.0
16	14	23	44	320	250.0	-124523.0	-10302.0	-5819523.0
16	14	23	44	321	251.0	-92835.0	-9529.0	-5820248.0
16	14	23	44	321	252.0	-72066.0	-7783.0	-5820951.0
16	14	23	44	321	253.0	-56194.0	-7062.0	-5820429.0
16	14	23	44	322	254.0	-19249.0	-6689.0	-5819735.0
16	14	23	44	322	255.0	31929.0	-6073.0	-5819641.0
16	14	23	44	322	0.0	96542.0	-5662.0	-5820689.0
16	14	23	44	323	1.0	169757.0	-5459.0	-5820491.0
16	14	23	44	323	2.0	229410.0	-5474.0	-5819786.0
16	14	23	44	323	3.0	263038.0	-4703.0	-5819302.0
16	14	23	44	323	4.0	269241.0	-2467.0	-5820069.0
16	14	23	44	324	5.0	264114.0	-1387.0	-5820637.0
16	14	23	44	324	6.0	264269.0	-558.0	-5819974.0
16	14	23	44	324	7.0	290129.0	-652.0	-5819397.0
16	14	23	44	325	8.0	318173.0	-341.0	-5819544.0
16	14	23	44	325	9.0	325296.0	-633.0	-5820695.0
16	14	23	44	325	10.0	301996.0	-177.0	-5820239.0
16	14	23	44	326	11.0	231515.0	1441.0	-5819636.0
16	14	23	44	326	12.0	126616.0	2161.0	-5819128.0
16	14	23	44	326	13.0	1849.0	2583.0	-5819896.0
16	14	23	44	327	14.0	-141314.0	3075.0	-5819854.0
16	14	23	44	327	15.0	-278349.0	3553.0	-5819270.0
16	14	23	44	327	16.0	-380888.0	3703.0	-5819578.0
16	14	23	44	384	17.0	-462239.0	3641.0	-5820525.0
16	14	23	44	385	18.0	-527657.0	4616.0	-5819957.0
16	14	23	44	385	19.0	-556324.0	6028.0	-5819372.0
16	14	23	44	386	20.0	-564334.0	6806.0	-5818702.0
16	14	23	44	386	21.0	-567588.0	7166.0	-5819557.0
16	14	23	44	386	22.0	-522154.0	7755.0	-5820201.0
16	14	23	44	387	23.0	-414567.0	8149.0	-5819657.0
16	14	23	44	387	24.0	-257848.0	7339.0	-5818970.0
16	14	23	44	387	25.0	-91619.0	7749.0	-5819129.0
16	14	23	44	388	26.0	54526.0	9366.0	-5820386.0
16	14	23	44	388	27.0	170752.0	9988.0	-5820106.0
16	14	23	44	388	28.0	259856.0	10878.0	-5819433.0
16	14	23	44	389	29.0	322365.0	11381.0	-5819377.0
16	14	23	44	389	30.0	359283.0	11859.0	-5820567.0
16	14	23	44	389	31.0	363759.0	10995.0	-5820398.0
16	14	23	44	389	32.0	340906.0	10533.0	-5819702.0
16	14	23	44	390	33.0	294737.0	11281.0	-5819209.0
16	14	23	44	390	34.0	229245.0	12853.0	-5819941.0
16	14	23	44	390	35.0	170578.0	13518.0	-5820401.0
16	14	23	44	391	36.0	179352.0	14004.0	-5819753.0
16	14	23	44	391	37.0	392819.0	14461.0	-5819170.0
16	14	23	44	391	38.0	730665.0	14771.0	-5818869.0
16	14	23	44	392	39.0	1093869.0	14110.0	-5820247.0
16	14	23	44	392	40.0	1511453.0	14276.0	-5820407.0
16	14	23	44	392	41.0	1871996.0	15931.0	-5819844.0
16	14	23	44	392	42.0	2080463.0	16939.0	-5819269.0
16	14	23	44	393	43.0	2112652.0	17178.0	-5819969.0
16	14	23	44	393	44.0	1971723.0	17198.0	-5820700.0
16	14	23	44	393	45.0	1669438.0	17566.0	-5820116.0
16	14	23	44	394	46.0	1148133.0	16901.0	-5819413.0
16	14	23	44	450	47.0	376749.0	16456.0	-5819824.0
16	14	23	44	450	48.0	-523547.0	16473.0	-5820697.0
16	14	23	44	450	49.0	-1440284.0	17684.0	-5820106.0
16	14	23	44	451	50.0	-2170641.0	18179.0	-5819345.0
16	14	23	44	451	51.0	-2596474.0	18818.0	-5818746.0
16	14	23	44	451	52.0	-2745684.0	18901.0	-5819713.0
16	14	23	44	452	53.0	-2635599.0	18493.0	-5820145.0
16	14	23	44	452	54.0	-2295578.0	17613.0	-5819547.0
16	14	23	44	452	55.0	-1778644.0	17858.0	-5818961.0
16	14	23	44	452	56.0	-1164261.0	18647.0	-5819557.0
16	14	23	44	453	57.0	-516491.0	18793.0	-5820451.0
16	14	23	44	453	58.0	103046.0	18409.0	-5819981.0
16	14	23	44	453	59.0	565186.0	18387.0	-5819409.0
16	14	23	44	453	60.0	716043.0	18569.0	-5819627.0
16	14	23	44	454	61.0	547586.0	18017.0	-5820699.0
16	14	23	44	454	62.0	142475.0	17512.0	-5820247.0
16	14	23	44	454	63.0	-351984.0	17927.0	-5819539.0
16	14	23	44	455	64.0	-825633.0	18768.0	-5819308.0
16	14	23	44	455	65.0	-1107686.0	18978.0	-5820496.0
16	14	23	44	455	66.0	-1176347.0	19122.0	-5820319.0
