16	14	26	49	807	188.0	3426202.0	8680.0	-5815712.0
16	14	26	49	807	189.0	3464938.0	7763.0	-5815661.0
16	14	26	49	808	190.0	3225107.0	6928.0	-5815031.0
16	14	26	49	808	191.0	2677844.0	6488.0	-5814774.0
16	14	26	49	816	192.0	1835219.0	5187.0	-5815944.0
16	14	26	49	816	193.0	726947.0	2799.0	-5815538.0
16	14	26	49	817	194.0	-440297.0	1628.0	-5814784.0
16	14	26	49	817	195.0	-1501538.0	1506.0	-5814009.0
16	14	26	49	841	196.0	-2377478.0	448.0	-5814898.0
16	14	26	49	841	197.0	-3051627.0	-1236.0	-5815149.0
16	14	26	49	842	198.0	-3581607.0	-112.0	-5814477.0
16	14	26	49	842	199.0	-3821692.0	-291.0	-5813714.0
16	14	26	49	842	200.0	-3605384.0	-1771.0	-5814074.0
16	14	26	49	842	201.0	-2978806.0	-2911.0	-5815115.0
16	14	26	49	843	202.0	-2147686.0	-3930.0	-5814762.0
16	14	26	49	843	203.0	-1247405.0	-4671.0	-5814144.0
16	14	26	49	843	204.0	-301086.0	-5796.0	-5814895.0
16	14	26	49	863	205.0	639467.0	-6564.0	-5815904.0
16	14	26	49	863	206.0	1496389.0	-6631.0	-5815505.0
16	14	26	49	863	207.0	2136327.0	-7022.0	-5814848.0
16	14	26	49	864	208.0	2467779.0	-8341.0	-5814519.0
16	14	26	49	864	209.0	2500309.0	-9249.0	-5815616.0
16	14	26	49	864	210.0	2250391.0	-9531.0	-5815821.0
16	14	26	49	864	211.0	1671743.0	-9401.0	-5815002.0
16	14	26	49	865	212.0	832204.0	-11215.0	-5814342.0
16	14	26	49	865	213.0	-175088.0	-11683.0	-5814807.0
16	14	26	49	865	214.0	-1208470.0	-11112.0	-5815232.0
16	14	26	49	880	215.0	-2132177.0	-11479.0	-5814489.0
16	14	26	49	919	216.0	-2887077.0	-12573.0	-5813807.0
16	14	26	49	919	217.0	-3421717.0	-12014.0	-5813510.0
16	14	26	49	931	218.0	-3755471.0	-12104.0	-5814703.0
16	14	26	49	931	219.0	-3934352.0	-12922.0	-5814490.0
16	14	26	49	932	220.0	-3967039.0	-13236.0	-5813851.0
16	14	26	49	932	221.0	-3822706.0	-13625.0	-5813710.0
16	14	26	49	933	222.0	-3450172.0	-14484.0	-5815089.0
16	14	26	49	933	223.0	-2918082.0	-14546.0	-5814918.0
16	14	26	49	933	224.0	-2194646.0	-15262.0	-5814347.0
16	14	26	49	934	225.0	-1282592.0	-16076.0	-5814053.0
16	14	26	49	965	226.0	-320614.0	-16902.0	-5815386.0
16	14	26	49	982	227.0	534421.0	-17375.0	-5815494.0
16	14	26	49	982	228.0	1240328.0	-17510.0	-5814881.0
16	14	26	49	982	229.0	1853111.0	-17793.0	-5814289.0
16	14	26	49	982	230.0	2400051.0	-17965.0	-5814182.0
16	14	26	49	983	248.0	6081158.0	-24507.0	-5815114.0
16	14	26	49	983	249.0	5951143.0	-25651.0	-5815528.0
16	14	26	49	983	250.0	5829557.0	-25573.0	-5814831.0
16	14	26	49	983	251.0	5676818.0	-24811.0	-5814423.0
16	14	26	49	984	252.0	5320765.0	-23927.0	-5815500.0
16	14	26	49	984	253.0	4863709.0	-22769.0	-5815862.0
16	14	26	49	984	254.0	4670863.0	-22499.0	-5815166.0
16	14	26	49	984	255.0	4501241.0	-21989.0	-5814576.0
16	14	26	49	985	0.0	4217531.0	-21543.0	-5814797.0
16	14	26	49	985	1.0	4022543.0	-20831.0	-5815862.0
16	14	26	49	985	14.0	5381704.0	-19779.0	-5815090.0
16	14	26	49	985	15.0	5381329.0	-20067.0	-5814518.0
16	14	26	49	986	16.0	5356386.0	-20989.0	-5813896.0
16	14	26	49	986	17.0	5297079.0	-21091.0	-5814908.0
16	14	26	49	986	18.0	5227886.0	-20783.0	-5815644.0
16	14	26	49	986	19.0	5180769.0	-21052.0	-5815084.0
16	14	26	49	987	20.0	5030129.0	-21135.0	-5814353.0
16	14	26	50	9	21.0	5163661.0	-21325.0	-5813999.0
16	14	26	50	9	22.0	5840988.0	-21482.0	-5815155.0
16	14	26	50	31	23.0	6524478.0	-21290.0	-5815441.0
16	14	26	50	31	24.0	6856406.0	-22012.0	-5814755.0
16	14	26	50	32	25.0	7041047.0	-22354.0	-5814177.0
16	14	26	50	32	26.0	7144594.0	-23152.0	-5814474.0
16	14	26	50	33	27.0	7077447.0	-23898.0	-5815874.0
16	14	26	50	33	28.0	6641808.0	-23961.0	-5815421.0
16	14	26	50	33	29.0	5377123.0	-24107.0	-5814753.0
16	14	26	50	34	30.0	3984907.0	-24060.0	-5814931.0
16	14	26	50	34	31.0	2915567.0	-23557.0	-5815921.0
16	14	26	50	35	32.0	2294791.0	-23801.0	-5815286.0
16	14	26	50	35	33.0	1940111.0	-24288.0	-5814652.0
16	14	26	50	36	34.0	1653721.0	-24412.0	-5814946.0
16	14	26	50	36	35.0	1492188.0	-24692.0	-5816159.0
16	14	26	50	37	37.0	1108285.0	-25689.0	-5814966.0
16	14	26	50	37	38.0	607799.0	-27088.0	-5814346.0
16	14	26	50	37	39.0	-72965.0	-27875.0	-5815078.0
16	14	26	50	38	40.0	-759272.0	-28299.0	-5815422.0
16	14	26	50	38	41.0	-1403267.0	-28873.0	-5814752.0
16	14	26	50	39	42.0	-1969105.0	-29065.0	-5814027.0
16	14	26	50	59	43.0	-2454889.0	-29311.0	-5814354.0
16	14	26	50	59	44.0	-2927665.0	-29341.0	-5815161.0
16	14	26	50	60	45.0	-3202615.0	-28562.0	-5814646.0
16	14	26	50	60	46.0	-3176589.0	-28554.0	-5813936.0
16	14	26	50	60	47.0	-2956751.0	-28989.0	-5813975.0
16	14	26	50	61	48.0	-2674527.0	-29114.0	-5815279.0
16	14	26	50	61	49.0	-2522269.0	-29997.0	-5815036.0
16	14	26	50	83	50.0	-2221799.0	-29998.0	-5814394.0
16	14	26	50	83	51.0	-1746832.0	-30400.0	-5813901.0
16	14	26	50	84	52.0	-1261574.0	-30373.0	-5814886.0
16	14	26	50	84	53.0	-763508.0	-30374.0	-5815497.0
16	14	26	50	84	54.0	-223065.0	-31529.0	-5814947.0
16	14	26	50	84	55.0	375826.0	-31477.0	-5814361.0
16	14	26	50	85	56.0	904971.0	-31207.0	-5814837.0
16	14	26	50	85	57.0	1138300.0	-32061.0	-5815834.0
16	14	26	50	85	59.0	1076334.0	-32531.0	-5814636.0
16	14	26	50	86	60.0	972933.0	-33186.0	-5814630.0
16	14	26	50	86	61.0	730971.0	-34912.0	-5815904.0
16	14	26	50	86	62.0	217605.0	-35469.0	-5815572.0
16	14	26	50	86	63.0	-883939.0	-36063.0	-5814801.0
16	14	26	50	87	64.0	-2011301.0	-36742.0	-5814334.0
16	14	26	50	87	65.0	-2780785.0	-36997.0	-5815321.0
16	14	26	50	102	66.0	-3254884.0	-36917.0	-5815309.0
16	14	26	50	102	67.0	-3568272.0	-35995.0	-5814509.0
16	14	26	50	102	68.0	-3875867.0	-34165.0	-5813852.0
16	14	26	50	103	69.0	-4226112.0	-33701.0	-5813754.0
16	14	26	50	103	70.0	-4581019.0	-33404.0	-5815058.0
16	14	26	50	121	71.0	-4697751.0	-33249.0	-5814715.0
16	14	26	50	121	72.0	-4611094.0	-33188.0	-5814144.0
16	14	26	50	121	73.0	-4491686.0	-32901.0	-5813611.0
16	14	26	50	122	74.0	-4395118.0	-32882.0	-5814837.0
16	14	26	50	122	75.0	-4309566.0	-33100.0	-5815208.0
16	14	26	50	122	76.0	-4151049.0	-32970.0	-5814632.0
16	14	26	50	122	77.0	-3837332.0	-32545.0	-5814064.0
16	14	26	50	123	78.0	-3409109.0	-32330.0	-5815104.0
16	14	26	50	123	79.0	-3200539.0	-32689.0	-5815666.0
16	14	26	50	123	80.0	-3071234.0	-33002.0	-5815117.0
16	14	26	50	123	82.0	-2780110.0	-33272.0	-5814497.0
16	14	26	50	124	83.0	-2653882.0	-34364.0	-5815565.0
16	14	26	50	124	84.0	-2508366.0	-34451.0	-5815311.0
16	14	26	50	124	85.0	-2414117.0	-34196.0	-5814627.0
16	14	26	50	124	86.0	-2328776.0	-34142.0	-5814272.0
16	14	26	50	124	87.0	-2222882.0	-33597.0	-5815322.0
16	14	26	50	146	88.0	-2142524.0	-32877.0	-5815566.0
16	14	26	50	146	89.0	-2066329.0	-32043.0	-5814889.0
16	14	26	50	146	90.0	-1965371.0	-30604.0	-5814348.0
16	14	26	50	164	91.0	-1820688.0	-30104.0	-5814834.0
16	14	26	50	164	92.0	-1696202.0	-29374.0	-5815746.0
16	14	26	50	165	93.0	-1505416.0	-28486.0	-5815171.0
16	14	26	50	165	94.0	-1346440.0	-28117.0	-5814581.0
16	14	26	50	165	95.0	-1282807.0	-27997.0	-5814507.0
16	14	26	50	165	96.0	-1033841.0	-27651.0	-5815869.0
16	14	26	50	166	97.0	-723996.0	-26987.0	-5815540.0
16	14	26	50	166	98.0	-505749.0	-26707.0	-5814983.0
16	14	26	50	166	99.0	-290682.0	-25644.0	-5814332.0
16	14	26	50	167	100.0	-44701.0	-24401.0	-5815026.0
16	14	26	50	167	101.0	98852.0	-23387.0	-5815964.0
16	14	26	50	167	102.0	243232.0	-22404.0	-5815457.0
16	14	26	50	167	104.0	484154.0	-20411.0	-5814589.0
16	14	26	50	168	105.0	373989.0	-20183.0	-5815954.0
16	14	26	50	168	106.0	338621.0	-20277.0	-5815970.0
16	14	26	50	168	107.0	310854.0	-18774.0	-5815291.0
16	14	26	50	168	108.0	281952.0	-17012.0	-5815122.0
16	14	26	50	169	109.0	185409.0	-15774.0	-5816451.0
16	14	26	50	169	110.0	84268.0	-14256.0	-5816357.0
16	14	26	50	189	111.0	158.0	-12386.0	-5815668.0
16	14	26	50	203	112.0	-131469.0	-10177.0	-5815063.0
16	14	26	50	204	113.0	-209361.0	-7253.0	-5815724.0
16	14	26	50	204	114.0	-199292.0	-5087.0	-5816527.0
16	14	26	50	204	115.0	-248102.0	-3861.0	-5815876.0
16	14	26	50	204	116.0	-287431.0	-2178.0	-5815178.0
16	14	26	50	205	117.0	-262081.0	-133.0	-5815282.0
16	14	26	50	205	118.0	-263332.0	1699.0	-5816432.0
16	14	26	50	205	119.0	-276269.0	3463.0	-5816045.0
16	14	26	50	205	120.0	-160839.0	5528.0	-5815374.0
16	14	26	50	206	121.0	-6000.0	7756.0	-5814847.0
16	14	26	50	206	122.0	90828.0	9918.0	-5815653.0
16	14	26	50	206	123.0	150503.0	11897.0	-5816158.0
16	14	26	50	206	124.0	253891.0	13955.0	-5815504.0
16	14	26	50	207	125.0	417131.0	16230.0	-5814981.0
16	14	26	50	207	127.0	975387.0	21232.0	-5816569.0
16	14	26	50	207	128.0	670392.0	22857.0	-5815886.0
16	14	26	50	207	129.0	238723.0	25046.0	-5815222.0
16	14	26	50	208	130.0	-102802.0	27659.0	-5815106.0
16	14	26	50	208	131.0	-277855.0	30193.0	-5815746.0
16	14	26	50	208	132.0	-251311.0	31786.0	-5815242.0
16	14	26	50	234	133.0	-94456.0	33558.0	-5814718.0
16	14	26	50	248	134.0	166009.0	36299.0	-5815804.0
16	14	26	50	248	135.0	381324.0	39598.0	-5816519.0
16	14	26	50	249	136.0	484221.0	41843.0	-5815846.0
16	14	26	50	249	137.0	448431.0	43904.0	-5815169.0
16	14	26	50	249	138.0	316687.0	45614.0	-5814868.0
16	14	26	50	250	139.0	287013.0	46958.0	-5816073.0
16	14	26	50	250	140.0	376626.0	48216.0	-5815887.0
16	14	26	50	250	141.0	344323.0	50001.0	-5815197.0
16	14	26	50	250	142.0	212382.0	51558.0	-5814594.0
16	14	26	50	251	143.0	212853.0	52470.0	-5815524.0
16	14	26	50	251	144.0	248843.0	54019.0	-5815851.0
16	14	26	50	251	145.0	297542.0	55941.0	-5815238.0
16	14	26	50	252	146.0	361497.0	57596.0	-5814543.0
16	14	26	50	252	147.0	353227.0	58939.0	-5815145.0
16	14	26	50	253	149.0	620027.0	61175.0	-5815508.0
16	14	26	50	253	150.0	529594.0	61248.0	-5814767.0
16	14	26	50	253	151.0	329161.0	61403.0	-5814672.0
16	14	26	50	254	152.0	238651.0	61999.0	-5815902.0
16	14	26	50	254	153.0	304681.0	62369.0	-5815739.0
16	14	26	50	254	154.0	498340.0	62076.0	-5815022.0
16	14	26	50	255	155.0	735413.0	62121.0	-5814944.0
16	14	26	50	279	156.0	816208.0	62703.0	-5816119.0
16	14	26	50	297	157.0	808776.0	63346.0	-5815921.0
16	14	26	50	298	158.0	948551.0	64516.0	-5815201.0
16	14	26	50	298	159.0	1130516.0	64534.0	-5814711.0
16	14	26	50	298	160.0	1080988.0	63576.0	-5815577.0
16	14	26	50	298	161.0	854256.0	62719.0	-5816221.0
16	14	26	50	299	162.0	533066.0	61830.0	-5815493.0
16	14	26	50	299	163.0	185159.0	61261.0	-5814811.0
16	14	26	50	299	164.0	-144641.0	60718.0	-5814734.0
16	14	26	50	299	165.0	-477531.0	59751.0	-5815846.0
16	14	26	50	300	166.0	-616320.0	58698.0	-5815373.0
16	14	26	50	300	167.0	-218589.0	57809.0	-5814782.0
16	14	26	50	300	168.0	696242.0	56934.0	-5814275.0
16	14	26	50	300	169.0	1788003.0	56093.0	-5815217.0
16	14	26	50	301	170.0	2719459.0	55631.0	-5815574.0
16	14	26	50	301	172.0	3419779.0	54366.0	-5814491.0
16	14	26	50	301	173.0	3124914.0	52304.0	-5815416.0
16	14	26	50	302	174.0	2633475.0	51001.0	-5815714.0
16	14	26	50	302	175.0	2107910.0	49678.0	-5815034.0
16	14	26	50	302	176.0	1630229.0	48764.0	-5814411.0
16	14	26	50	302	177.0	1222254.0	47686.0	-5815394.0
16	14	26	50	325	178.0	928089.0	46928.0	-5815761.0
16	14	26	50	335	179.0	815547.0	46843.0	-5815104.0
16	14	26	50	335	180.0	888869.0	47111.0	-5814394.0
16	14	26	50	335	181.0	1086723.0	46079.0	-5814113.0
16	14	26	50	336	182.0	1318648.0	45065.0	-5815321.0
16	14	26	50	336	183.0	1563154.0	44493.0	-5815309.0
16	14	26	50	336	184.0	1746979.0	43815.0	-5814623.0
16	14	26	50	336	185.0	1926866.0	43494.0	-5814119.0
16	14	26	50	336	186.0	2058314.0	42414.0	-5815303.0
16	14	26	50	337	187.0	2126594.0	41187.0	-5815694.0
16	14	26	50	337	188.0	2087068.0	40825.0	-5815031.0
16	14	26	50	337	189.0	1964173.0	40328.0	-5814431.0
16	14	26	50	337	190.0	1807438.0	38453.0	-5815117.0
16	14	26	50	338	191.0	1534640.0	37249.0	-5815920.0
16	14	26	50	338	192.0	1246913.0	36176.0	-5815289.0
16	14	26	50	338	194.0	677765.0	34048.0	-5814512.0
16	14	26	50	338	195.0	427661.0	32615.0	-5815638.0
16	14	26	50	369	196.0	290036.0	30356.0	-5815279.0
16	14	26	50	369	197.0	138046.0	29111.0	-5814533.0
16	14	26	50	370	198.0	46176.0	27828.0	-5813941.0
16	14	26	50	382	199.0	-101912.0	27114.0	-5814658.0
16	14	26	50	382	200.0	-131032.0	26358.0	-5815296.0
16	14	26	50	382	201.0	-194324.0	26344.0	-5814643.0
16	14	26	50	383	202.0	-141062.0	24790.0	-5814019.0
16	14	26	50	383	203.0	-19342.0	23704.0	-5814102.0
16	14	26	50	383	204.0	279372.0	22287.0	-5814865.0
16	14	26	50	384	205.0	631289.0	21081.0	-5814394.0
16	14	26	50	384	206.0	1066846.0	19782.0	-5813879.0
16	14	26	50	384	207.0	1455577.0	18332.0	-5814756.0
16	14	26	50	384	208.0	1763697.0	17505.0	-5815286.0
16	14	26	50	385	209.0	1921016.0	16803.0	-5814674.0
16	14	26	50	385	210.0	1976199.0	16286.0	-5814022.0
16	14	26	50	385	217.0	1380928.0	9144.0	-5814666.0
16	14	26	50	386	218.0	1594951.0	6880.0	-5814096.0
16	14	26	50	386	219.0	1801884.0	6002.0	-5813573.0
16	14	26	50	386	220.0	1918121.0	5134.0	-5814572.0
16	14	26	50	405	221.0	1940979.0	3791.0	-5814911.0
16	14	26	50	406	222.0	1886541.0	2998.0	-5814319.0
16	14	26	50	426	223.0	1817758.0	1915.0	-5813612.0
16	14	26	50	427	224.0	1745999.0	1529.0	-5814099.0
16	14	26	50	427	225.0	1663246.0	2249.0	-5815054.0
16	14	26	50	427	226.0	1503449.0	2134.0	-5814545.0
16	14	26	50	427	227.0	1299398.0	1069.0	-5813751.0
16	14	26	50	428	228.0	1035714.0	259.0	-5813333.0
16	14	26	50	428	229.0	782828.0	-322.0	-5814304.0
16	14	26	50	428	230.0	568410.0	-645.0	-5814466.0
16	14	26	50	429	231.0	473724.0	-1062.0	-5813747.0
16	14	26	50	429	232.0	400498.0	-1631.0	-5813203.0
16	14	26	50	429	233.0	340971.0	-1547.0	-5813769.0
16	14	26	50	429	234.0	201176.0	-2081.0	-5814576.0
16	14	26	50	430	235.0	106093.0	-2951.0	-5813911.0
16	14	26	50	430	236.0	-43988.0	-3441.0	-5813309.0
16	14	26	50	430	237.0	-134477.0	-3517.0	-5813704.0
16	14	26	50	431	239.0	-431606.0	-3736.0	-5814226.0
16	14	26	50	431	240.0	-636589.0	-4825.0	-5813592.0
16	14	26	50	431	241.0	-730449.0	-5809.0	-5813079.0
16	14	26	50	448	242.0	-820973.0	-6227.0	-5813837.0
16	14	26	50	448	243.0	-804031.0	-6067.0	-5813669.0
16	14	26	50	448	244.0	-841773.0	-6074.0	-5813067.0
16	14	26	50	467	245.0	-788689.0	-6152.0	-5812618.0
16	14	26	50	467	246.0	-750171.0	-5996.0	-5813464.0
16	14	26	50	467	247.0	-655702.0	-4511.0	-5813249.0
16	14	26	50	468	248.0	-604412.0	-3942.0	-5812681.0
16	14	26	50	468	249.0	-513806.0	-4236.0	-5812805.0
16	14	26	50	468	250.0	-466924.0	-4697.0	-5814219.0
16	14	26	50	468	251.0	-398043.0	-5129.0	-5813832.0
16	14	26	50	469	252.0	-338577.0	-5558.0	-5813233.0
16	14	26	50	469	253.0	-241962.0	-5499.0	-5812812.0
16	14	26	50	469	254.0	-127587.0	-5801.0	-5813574.0
16	14	26	50	470	255.0	-21152.0	-6042.0	-5813269.0
16	14	26	50	484	0.0	115989.0	-5851.0	-5812733.0
16	14	26	50	485	1.0	197406.0	-5910.0	-5813314.0
16	14	26	50	485	2.0	279554.0	-6086.0	-5814326.0
16	14	26	50	485	3.0	278491.0	-6289.0	-5813679.0
16	14	26	50	486	5.0	262639.0	-6879.0	-5812479.0
16	14	26	50	486	6.0	301701.0	-7449.0	-5813363.0
16	14	26	50	486	7.0	334357.0	-9090.0	-5813803.0
16	14	26	50	486	8.0	405421.0	-9477.0	-5813254.0
16	14	26	50	487	9.0	400789.0	-9530.0	-5812612.0
16	14	26	50	487	10.0	422231.0	-9721.0	-5813526.0
16	14	26	50	487	11.0	366079.0	-10017.0	-5814249.0
16	14	26	50	504	12.0	348279.0	-10404.0	-5813709.0
16	14	26	50	505	13.0	287457.0	-10462.0	-5812987.0
16	14	26	50	520	14.0	255879.0	-9069.0	-5813041.0
16	14	26	50	520	15.0	179208.0	-9558.0	-5814316.0
16	14	26	50	520	16.0	90706.0	-10212.0	-5814074.0
16	14	26	50	521	17.0	-106340.0	-9707.0	-5813334.0
16	14	26	50	521	18.0	-281391.0	-9758.0	-5812847.0
16	14	26	50	521	19.0	-287614.0	-10359.0	-5813739.0
16	14	26	50	521	20.0	-35501.0	-10528.0	-5814216.0
16	14	26	50	522	21.0	450059.0	-10350.0	-5813559.0
16	14	26	50	522	22.0	1029754.0	-10209.0	-5813034.0
16	14	26	50	522	23.0	1544683.0	-10041.0	-5813339.0
16	14	26	50	523	24.0	1867854.0	-10179.0	-5814746.0
16	14	26	50	523	25.0	2060340.0	-9599.0	-5814345.0
16	14	26	50	523	26.0	2088460.0	-9314.0	-5813711.0
16	14	26	50	523	28.0	1697447.0	-9594.0	-5814404.0
16	14	26	50	524	29.0	1430128.0	-10141.0	-5814375.0
16	14	26	50	524	30.0	1170638.0	-11164.0	-5813707.0
16	14	26	50	524	31.0	971159.0	-11763.0	-5813065.0
16	14	26	50	524	32.0	818518.0	-11754.0	-5813476.0
16	14	26	50	525	33.0	754616.0	-11894.0	-5813802.0
16	14	26	50	551	34.0	833513.0	-11809.0	-5813271.0
16	14	26	50	552	35.0	1014347.0	-12041.0	-5812644.0
16	14	26	50	565	36.0	1233634.0	-11574.0	-5813187.0
16	14	26	50	566	37.0	1385876.0	-11168.0	-5813452.0
16	14	26	50	566	38.0	1494444.0	-11073.0	-5812901.0
16	14	26	50	566	39.0	1523321.0	-10919.0	-5812911.0
16	14	26	50	567	40.0	1568379.0	-11272.0	-5813809.0
16	14	26	50	567	41.0	1579061.0	-11374.0	-5813300.0
16	14	26	50	567	42.0	1672847.0	-11197.0	-5812722.0
16	14	26	50	567	43.0	1526604.0	-11091.0	-5812658.0
16	14	26	50	568	44.0	1254331.0	-10841.0	-5813849.0
16	14	26	50	568	45.0	921819.0	-11800.0	-5813444.0
16	14	26	50	568	46.0	686898.0	-11930.0	-5812819.0
16	14	26	50	568	47.0	470239.0	-11964.0	-5812244.0
16	14	26	50	569	48.0	413567.0	-12483.0	-5812794.0
16	14	26	50	569	50.0	542246.0	-12734.0	-5812183.0
16	14	26	50	569	51.0	621087.0	-13595.0	-5811889.0
16	14	26	50	570	52.0	674870.0	-15349.0	-5813289.0
16	14	26	50	570	53.0	714530.0	-15369.0	-5813162.0
16	14	26	50	570	54.0	783932.0	-15801.0	-5812584.0
16	14	26	50	570	55.0	806268.0	-16215.0	-5811973.0
16	14	26	50	571	56.0	756318.0	-16702.0	-5812796.0
16	14	26	50	595	57.0	654341.0	-16867.0	-5813417.0
16	14	26	50	595	58.0	562303.0	-16201.0	-5812846.0
16	14	26	50	616	59.0	453859.0	-15407.0	-5812180.0
16	14	26	50	616	60.0	258719.0	-15891.0	-5812691.0
16	14	26	50	616	61.0	-29800.0	-15696.0	-5813412.0
16	14	26	50	617	62.0	-233729.0	-15824.0	-5812896.0
16	14	26	50	617	63.0	-75776.0	-15779.0	-5812229.0
16	14	26	50	617	64.0	553311.0	-15976.0	-5812329.0
16	14	26	50	618	65.0	1396277.0	-16094.0	-5813772.0
16	14	26	50	618	66.0	2185476.0	-15915.0	-5813577.0
16	14	26	50	618	67.0	2720305.0	-15948.0	-5812944.0
16	14	26	50	619	68.0	3001974.0	-15912.0	-5812379.0
16	14	26	50	619	69.0	3064191.0	-15936.0	-5813097.0
16	14	26	50	619	70.0	2964364.0	-15752.0	-5813722.0
16	14	26	50	619	71.0	2751473.0	-16220.0	-5813114.0
16	14	26	50	620	73.0	1957465.0	-16402.0	-5812363.0
16	14	26	50	620	74.0	1501948.0	-17821.0	-5813523.0
16	14	26	50	620	75.0	1064925.0	-18204.0	-5813216.0
16	14	26	50	621	76.0	707114.0	-18278.0	-5812559.0
16	14	26	50	621	77.0	463643.0	-18554.0	-5812402.0
16	14	26	50	622	78.0	247450.0	-18895.0	-5813659.0
16	14	26	50	639	79.0	41482.0	-18797.0	-5813416.0
16	14	26	50	654	80.0	-114507.0	-18281.0	-5812726.0
16	14	26	50	654	81.0	-101844.0	-16498.0	-5812117.0
16	14	26	50	654	82.0	50707.0	-16475.0	-5812515.0
16	14	26	50	655	83.0	343024.0	-16505.0	-5813001.0
16	14	26	50	685	84.0	661414.0	-17081.0	-5812474.0
16	14	26	50	699	85.0	892102.0	-16941.0	-5811901.0
16	14	26	50	700	86.0	935399.0	-16329.0	-5812211.0
16	14	26	50	700	87.0	853586.0	-16552.0	-5812832.0
16	14	26	50	700	88.0	709835.0	-16486.0	-5812292.0
16	14	26	50	701	89.0	586728.0	-16677.0	-5811699.0
16	14	26	50	701	90.0	500069.0	-16127.0	-5812600.0
16	14	26	50	702	91.0	451921.0	-15406.0	-5813186.0
16	14	26	50	702	92.0	432621.0	-15146.0	-5812615.0
16	14	26	50	702	93.0	440338.0	-14930.0	-5811981.0
16	14	26	50	702	95.0	372335.0	-15333.0	-5813377.0
16	14	26	50	703	96.0	304940.0	-15301.0	-5812907.0
16	14	26	50	703	97.0	258205.0	-16607.0	-5812231.0
16	14	26	50	703	98.0	227228.0	-15796.0	-5812111.0
16	14	26	50	704	99.0	210606.0	-14549.0	-5813360.0
16	14	26	50	704	118.0	767941.0	-7611.0	-5813169.0
16	14	26	50	704	119.0	782328.0	-8289.0	-5812606.0
16	14	26	50	706	120.0	767299.0	-8431.0	-5812134.0
16	14	26	50	707	121.0	705424.0	-8385.0	-5813161.0
16	14	26	50	708	122.0	637972.0	-7678.0	-5813227.0
16	14	26	50	709	123.0	585374.0	-7369.0	-5812692.0
16	14	26	50	731	124.0	547597.0	-7474.0	-5812114.0
16	14	26	50	731	125.0	498070.0	-7027.0	-5812985.0
16	14	26	50	732	126.0	446648.0	-5260.0	-5813422.0
16	14	26	50	748	127.0	376536.0	-5206.0	-5812878.0
16	14	26	50	749	128.0	301801.0	-5109.0	-5812183.0
16	14	26	50	749	129.0	228217.0	-4907.0	-5812749.0
16	14	26	50	749	130.0	142188.0	-4531.0	-5813774.0
16	14	26	50	749	131.0	76411.0	-3792.0	-5813309.0
16	14	26	50	750	132.0	31044.0	-3206.0	-5812579.0
16	14	26	50	750	133.0	-4800.0	-2513.0	-5812170.0
16	14	26	50	750	134.0	-36255.0	-1289.0	-5813167.0
16	14	26	50	750	135.0	-33980.0	-267.0	-5813524.0
16	14	26	50	751	136.0	-31226.0	868.0	-5812831.0
16	14	26	50	751	137.0	-18724.0	1426.0	-5812253.0
16	14	26	50	751	138.0	15382.0	2346.0	-5812415.0
16	14	26	50	752	140.0	99836.0	6168.0	-5813103.0
16	14	26	50	752	141.0	157484.0	7109.0	-5812534.0
16	14	26	50	752	142.0	231102.0	7503.0	-5812302.0
16	14	26	50	752	143.0	245756.0	9452.0	-5813595.0
16	14	26	50	753	144.0	203233.0	11625.0	-5813391.0
16	14	26	50	753	145.0	197386.0	13938.0	-5812811.0
16	14	26	50	753	146.0	346634.0	16151.0	-5812181.0
16	14	26	50	773	147.0	577056.0	17816.0	-5812843.0
16	14	26	50	785	148.0	834550.0	20753.0	-5813756.0
16	14	26	50	785	149.0	1057129.0	24023.0	-5813262.0
16	14	26	50	785	150.0	1202567.0	26696.0	-5812582.0
16	14	26	50	785	151.0	1241801.0	29101.0	-5812204.0
16	14	26	50	786	152.0	1171146.0	31823.0	-5813231.0
16	14	26	50	786	153.0	1062501.0	34656.0	-5813389.0
16	14	26	50	786	154.0	938669.0	37275.0	-5812726.0
16	14	26	50	786	155.0	834808.0	39723.0	-5812230.0
16	14	26	50	786	156.0	729242.0	41762.0	-5813116.0
16	14	26	50	787	157.0	611670.0	44073.0	-5813713.0
16	14	26	50	787	158.0	491291.0	46261.0	-5813066.0
16	14	26	50	787	159.0	404138.0	48574.0	-5812444.0
16	14	26	50	787	160.0	345564.0	51164.0	-5812725.0
16	14	26	50	788	161.0	267370.0	53158.0	-5813796.0
16	14	26	50	788	163.0	221475.0	58456.0	-5812667.0
16	14	26	50	788	164.0	476618.0	59048.0	-5812176.0
16	14	26	50	788	165.0	779674.0	60773.0	-5813002.0
16	14	26	50	789	166.0	1043591.0	63224.0	-5813534.0
16	14	26	50	802	167.0	1237341.0	65434.0	-5812936.0
16	14	26	50	802	168.0	1312866.0	67640.0	-5812341.0
16	14	26	50	820	169.0	1308188.0	69623.0	-5812486.0
16	14	26	50	820	170.0	1251259.0	71295.0	-5813351.0
16	14	26	50	838	171.0	1169531.0	74201.0	-5812899.0
16	14	26	50	838	172.0	1044138.0	75988.0	-5812301.0
16	14	26	50	838	173.0	911784.0	77246.0	-5813058.0
16	14	26	50	839	174.0	822428.0	78574.0	-5813678.0
16	14	26	50	839	175.0	770742.0	79508.0	-5813107.0
16	14	26	50	839	176.0	790775.0	80191.0	-5812473.0
16	14	26	50	839	177.0	865640.0	80953.0	-5812467.0
16	14	26	50	840	178.0	956221.0	82230.0	-5813633.0
16	14	26	50	840	179.0	1040383.0	83023.0	-5813290.0
16	14	26	50	840	180.0	1091714.0	83296.0	-5812673.0
16	14	26	50	840	181.0	1115413.0	83638.0	-5812098.0
16	14	26	50	841	182.0	1106400.0	83730.0	-5812777.0
16	14	26	50	841	183.0	1082430.0	83178.0	-5813327.0
16	14	26	50	841	185.0	1012196.0	82329.0	-5812130.0
16	14	26	50	841	186.0	965868.0	81093.0	-5812360.0
16	14	26	50	842	187.0	896526.0	79426.0	-5813442.0
16	14	26	50	842	188.0	860911.0	78174.0	-5813033.0
16	14	26	50	842	189.0	838706.0	77396.0	-5812404.0
16	14	26	50	842	190.0	834254.0	76221.0	-5812560.0
16	14	26	50	842	191.0	887801.0	74774.0	-5813598.0
16	14	26	50	865	192.0	929424.0	73328.0	-5813157.0
16	14	26	50	882	193.0	938431.0	72554.0	-5812509.0
16	14	26	50	882	194.0	942028.0	72219.0	-5811919.0
16	14	26	50	882	195.0	901246.0	70709.0	-5811930.0
16	14	26	50	882	196.0	856501.0	68906.0	-5812866.0
16	14	26	50	883	197.0	786783.0	66975.0	-5812428.0
16	14	26	50	883	198.0	599488.0	65201.0	-5811828.0
16	14	26	50	883	199.0	379862.0	63899.0	-5811925.0
16	14	26	50	884	200.0	333919.0	61368.0	-5812279.0
16	14	26	50	884	201.0	651369.0	59101.0	-5811796.0
16	14	26	50	884	202.0	1227266.0	57103.0	-5811620.0
16	14	26	50	884	203.0	1711054.0	54823.0	-5813130.0
16	14	26	50	885	204.0	1963473.0	52936.0	-5813162.0
16	14	26	50	885	205.0	1805133.0	50524.0	-5812553.0
16	14	26	50	885	206.0	1373706.0	48378.0	-5811907.0
16	14	26	50	885	208.0	584222.0	43530.0	-5813384.0
16	14	26	50	886	209.0	379841.0	39943.0	-5812823.0
16	14	26	50	886	210.0	175183.0	37452.0	-5812135.0
16	14	26	50	886	211.0	70916.0	34949.0	-5811999.0
16	14	26	50	886	212.0	83143.0	33017.0	-5813232.0
16	14	26	50	887	213.0	232574.0	30641.0	-5813027.0
16	14	26	50	909	214.0	462432.0	28529.0	-5812421.0
16	14	26	50	922	215.0	818537.0	27191.0	-5811851.0
16	14	26	50	923	216.0	1152120.0	26711.0	-5812437.0
16	14	26	50	923	217.0	1396653.0	24710.0	-5813347.0
16	14	26	50	923	218.0	1369978.0	22468.0	-5812852.0
16	14	26	50	924	219.0	1125165.0	20759.0	-5812322.0
16	14	26	50	924	220.0	755142.0	19341.0	-5813195.0
16	14	26	50	924	221.0	470756.0	17497.0	-5813708.0
16	14	26	50	924	222.0	263106.0	15681.0	-5813109.0
16	14	26	50	924	223.0	71843.0	14574.0	-5812467.0
16	14	26	50	925	224.0	-153782.0	12738.0	-5812171.0
16	14	26	50	925	225.0	-363862.0	10881.0	-5813361.0
16	14	26	50	925	226.0	-525826.0	9888.0	-5813304.0
16	14	26	50	925	227.0	-583864.0	8282.0	-5812607.0
16	14	26	50	926	228.0	-523856.0	6175.0	-5812119.0
16	14	26	50	926	230.0	-304841.0	2991.0	-5813956.0
16	14	26	50	926	231.0	-83119.0	832.0	-5813374.0
16	14	26	50	926	232.0	192239.0	-1284.0	-5812836.0
16	14	26	50	927	233.0	435638.0	-3038.0	-5812422.0
16	14	26	50	927	234.0	535022.0	-4618.0	-5813609.0
16	14	26	50	927	235.0	444927.0	-6021.0	-5813754.0
16	14	26	50	954	236.0	211371.0	-7451.0	-5813109.0
16	14	26	50	966	237.0	-44435.0	-8829.0	-5812553.0
16	14	26	50	966	238.0	-228281.0	-9106.0	-5813600.0
16	14	26	50	966	239.0	-403413.0	-9975.0	-5814012.0
16	14	26	50	966	240.0	-383398.0	-11786.0	-5813464.0
16	14	26	50	967	241.0	-354475.0	-13148.0	-5812801.0
16	14	26	50	967	242.0	-247697.0	-14833.0	-5812927.0
16	14	26	50	967	243.0	-354816.0	-17372.0	-5813911.0
16	14	26	50	967	244.0	-357519.0	-19051.0	-5813618.0
16	14	26	50	968	245.0	-523564.0	-20539.0	-5812916.0
16	14	26	50	968	246.0	-671136.0	-21883.0	-5812508.0
16	14	26	50	968	247.0	-992879.0	-24035.0	-5813553.0
16	14	26	50	968	248.0	-1214189.0	-26576.0	-5813923.0
16	14	26	50	968	249.0	-1489739.0	-28233.0	-5813190.0
16	14	26	50	969	250.0	-1557039.0	-29212.0	-5812725.0
16	14	26	50	986	253.0	-1295578.0	-34089.0	-5813765.0
16	14	26	50	986	254.0	-1085743.0	-36323.0	-5813225.0
16	14	26	50	986	255.0	-933742.0	-37807.0	-5812754.0
16	14	26	50	987	0.0	-636319.0	-39001.0	-5813688.0
16	14	26	50	987	1.0	-404101.0	-40019.0	-5813767.0
16	14	26	50	987	2.0	-82137.0	-40812.0	-5813231.0
16	14	26	51	12	3.0	211825.0	-42009.0	-5812821.0
16	14	26	51	12	4.0	440222.0	-42823.0	-5813763.0
16	14	26	51	12	5.0	717387.0	-42946.0	-5813646.0
16	14	26	51	13	6.0	1060418.0	-43563.0	-5813112.0
16	14	26	51	13	7.0	1543277.0	-44194.0	-5812902.0
16	14	26	51	13	8.0	1888239.0	-45201.0	-5813927.0
16	14	26	51	13	9.0	2134666.0	-46037.0	-5813662.0
16	14	26	51	14	10.0	2156259.0	-46514.0	-5813102.0
16	14	26	51	14	11.0	2042583.0	-47142.0	-5813239.0
16	14	26	51	14	12.0	1855363.0	-47635.0	-5814016.0
16	14	26	51	14	13.0	1616439.0	-48241.0	-5813509.0
16	14	26	51	15	14.0	1502554.0	-48711.0	-5813096.0
16	14	26	51	15	15.0	1379816.0	-48819.0	-5814210.0
16	14	26	51	15	16.0	1318689.0	-48498.0	-5814417.0
16	14	26	51	15	17.0	1239457.0	-48746.0	-5813781.0
16	14	26	51	16	19.0	1227216.0	-49857.0	-5812697.0
16	14	26	51	16	20.0	1189968.0	-50929.0	-5813926.0
16	14	26	51	16	21.0	1253831.0	-52073.0	-5814117.0
16	14	26	51	16	22.0	1348649.0	-51967.0	-5813541.0
16	14	26	51	17	23.0	1465769.0	-52217.0	-5813001.0
16	14	26	51	17	24.0	1510869.0	-52446.0	-5813954.0
16	14	26	51	44	25.0	1556980.0	-51778.0	-5814303.0
16	14	26	51	66	26.0	1578598.0	-51466.0	-5813757.0
16	14	26	51	66	27.0	1496422.0	-50226.0	-5813112.0
16	14	26	51	67	28.0	1413108.0	-48989.0	-5813267.0
16	14	26	51	67	29.0	1238741.0	-48110.0	-5814526.0
16	14	26	51	67	30.0	1140109.0	-47224.0	-5814243.0
16	14	26	51	67	31.0	1002566.0	-46671.0	-5813571.0
16	14	26	51	68	32.0	861257.0	-45658.0	-5813432.0
16	14	26	51	68	33.0	716442.0	-44858.0	-5814842.0
16	14	26	51	68	34.0	578283.0	-44355.0	-5814796.0
16	14	26	51	68	35.0	495809.0	-43207.0	-5814042.0
16	14	26	51	69	36.0	402546.0	-42476.0	-5813463.0
16	14	26	51	92	37.0	432144.0	-41328.0	-5813087.0
16	14	26	51	92	38.0	459147.0	-39627.0	-5813760.0
16	14	26	51	92	39.0	573044.0	-38301.0	-5813467.0
16	14	26	51	93	41.0	816709.0	-35653.0	-5813243.0
16	14	26	51	93	42.0	860693.0	-35102.0	-5814151.0
16	14	26	51	93	43.0	934993.0	-35684.0	-5813651.0
16	14	26	51	117	44.0	977679.0	-34556.0	-5813087.0
16	14	26	51	117	45.0	1096938.0	-33597.0	-5813099.0
16	14	26	51	118	46.0	1151786.0	-31941.0	-5813914.0
16	14	26	51	118	47.0	1278713.0	-29292.0	-5813474.0
16	14	26	51	118	48.0	1460825.0	-27793.0	-5812867.0
16	14	26	51	118	49.0	1626315.0	-26947.0	-5813171.0
16	14	26	51	119	50.0	1731244.0	-25782.0	-5814016.0
16	14	26	51	119	51.0	1761869.0	-24353.0	-5813499.0
16	14	26	51	119	52.0	1779518.0	-23214.0	-5812882.0
16	14	26	51	119	64.0	709845.0	-12642.0	-5813587.0
16	14	26	51	120	65.0	533582.0	-12691.0	-5813269.0
16	14	26	51	120	66.0	337782.0	-13237.0	-5814567.0
16	14	26	51	120	67.0	157808.0	-12729.0	-5814681.0
16	14	26	51	120	68.0	-10265.0	-12199.0	-5814024.0
16	14	26	51	121	69.0	-31712.0	-11507.0	-5813367.0
16	14	26	51	145	70.0	-72492.0	-11146.0	-5813771.0
16	14	26	51	179	71.0	-71060.0	-10779.0	-5814917.0
16	14	26	51	224	72.0	-151773.0	-10080.0	-5814454.0
16	14	26	51	233	73.0	-142423.0	-9196.0	-5813794.0
16	14	26	51	233	74.0	-184940.0	-8263.0	-5813538.0
16	14	26	51	233	75.0	-127859.0	-8341.0	-5814754.0
16	14	26	51	234	76.0	-35691.0	-8236.0	-5814751.0
16	14	26	51	234	77.0	77058.0	-8299.0	-5814103.0
16	14	26	51	234	78.0	149528.0	-8503.0	-5813492.0
16	14	26	51	235	79.0	164454.0	-8358.0	-5813546.0
16	14	26	51	235	80.0	200284.0	-8685.0	-5814232.0
16	14	26	51	236	81.0	304571.0	-8502.0	-5813767.0
16	14	26	51	236	82.0	243701.0	-8611.0	-5813232.0
16	14	26	51	236	83.0	275596.0	-8374.0	-5814197.0
16	14	26	51	263	84.0	26308.0	-7906.0	-5814614.0
16	14	26	51	263	86.0	-417972.0	-8436.0	-5813399.0
16	14	26	51	263	109.0	2105120.0	-17078.0	-5814252.0
16	14	26	51	264	131.0	1503413.0	-12121.0	-5814719.0
16	14	26	51	264	132.0	1335075.0	-12838.0	-5814595.0
16	14	26	51	264	133.0	1119638.0	-14092.0	-5815828.0
16	14	26	51	264	134.0	906011.0	-13423.0	-5815638.0
16	14	26	51	265	135.0	659282.0	-12621.0	-5814974.0
16	14	26	51	265	136.0	495153.0	-12347.0	-5814505.0
16	14	26	51	265	137.0	332849.0	-11909.0	-5815650.0
16	14	26	51	290	138.0	199052.0	-10849.0	-5816238.0
16	14	26	51	290	139.0	78635.0	-10489.0	-5815599.0
16	14	26	51	291	140.0	-116429.0	-9649.0	-5815066.0
16	14	26	51	291	141.0	-229087.0	-9297.0	-5815941.0
16	14	26	51	291	142.0	-374816.0	-8927.0	-5816536.0
16	14	26	51	292	143.0	-379140.0	-8408.0	-5815906.0
16	14	26	51	292	144.0	-327792.0	-8225.0	-5815311.0
16	14	26	51	292	145.0	-260475.0	-7893.0	-5815234.0
16	14	26	51	292	146.0	-87179.0	-7344.0	-5816614.0
16	14	26	51	293	147.0	71346.0	-7242.0	-5816421.0
16	14	26	51	293	148.0	144873.0	-6892.0	-5815800.0
16	14	26	51	293	149.0	220123.0	-6476.0	-5815219.0
16	14	26	51	293	150.0	282990.0	-6368.0	-5815571.0
16	14	26	51	294	151.0	274818.0	-5853.0	-5816726.0
16	14	26	51	294	152.0	275861.0	-5912.0	-5816233.0
16	14	26	51	294	154.0	70076.0	-5299.0	-5815287.0
16	14	26	51	294	155.0	-83671.0	-5600.0	-5816520.0
16	14	26	51	295	156.0	-297800.0	-5525.0	-5816452.0
16	14	26	51	295	157.0	-398298.0	-4827.0	-5815829.0
16	14	26	51	295	158.0	-568109.0	-4271.0	-5815256.0
16	14	26	51	295	159.0	-485839.0	-4600.0	-5816312.0
16	14	26	51	318	160.0	-436256.0	-4266.0	-5816963.0
16	14	26	51	319	161.0	-320526.0	-3957.0	-5816424.0
16	14	26	51	319	162.0	-293029.0	-2876.0	-5815771.0
16	14	26	51	319	163.0	-337780.0	-2767.0	-5815683.0
16	14	26	51	320	164.0	-337084.0	-2138.0	-5816812.0
16	14	26	51	320	165.0	-458528.0	-1592.0	-5816628.0
16	14	26	51	320	166.0	-414194.0	-1659.0	-5815930.0
16	14	26	51	320	167.0	-458475.0	-1619.0	-5815440.0
16	14	26	51	347	168.0	-360959.0	-912.0	-5816042.0
16	14	26	51	347	169.0	-301485.0	-179.0	-5816639.0
16	14	26	51	347	170.0	-148528.0	241.0	-5815997.0
16	14	26	51	348	171.0	-30135.0	371.0	-5815517.0
16	14	26	51	348	172.0	106444.0	1198.0	-5816284.0
16	14	26	51	348	173.0	262109.0	2191.0	-5817029.0
16	14	26	51	348	174.0	356799.0	3236.0	-5816377.0
16	14	26	51	349	176.0	555496.0	4912.0	-5815338.0
16	14	26	51	349	177.0	641933.0	4773.0	-5816517.0
16	14	26	51	349	178.0	645636.0	4190.0	-5816829.0
16	14	26	51	349	179.0	618043.0	5206.0	-5816289.0
16	14	26	51	350	180.0	589738.0	6561.0	-5815586.0
16	14	26	51	350	181.0	554110.0	7704.0	-5815984.0
16	14	26	51	350	182.0	530726.0	9099.0	-5817061.0
16	14	26	51	404	183.0	461063.0	10643.0	-5816671.0
16	14	26	51	405	184.0	427983.0	12488.0	-5815988.0
16	14	26	51	405	185.0	433989.0	15289.0	-5815602.0
16	14	26	51	405	186.0	493794.0	17693.0	-5816687.0
16	14	26	51	406	187.0	537625.0	21089.0	-5817092.0
16	14	26	51	418	188.0	564619.0	27827.0	-5816417.0
16	14	26	51	418	189.0	600244.0	34924.0	-5815898.0
16	14	26	51	419	190.0	627915.0	41237.0	-5816551.0
16	14	26	51	419	191.0	710776.0	46947.0	-5817406.0
16	14	26	51	419	192.0	769697.0	52029.0	-5816802.0
16	14	26	51	420	193.0	839061.0	57012.0	-5816231.0
16	14	26	51	420	194.0	903753.0	61479.0	-5815622.0
16	14	26	51	420	195.0	954144.0	65434.0	-5816217.0
16	14	26	51	421	196.0	1049947.0	68775.0	-5816540.0
16	14	26	51	421	197.0	1140858.0	71708.0	-5816021.0
16	14	26	51	422	221.0	510539.0	97909.0	-5816952.0
16	14	26	51	422	222.0	360171.0	96649.0	-5816302.0
16	14	26	51	422	223.0	164167.0	94961.0	-5815719.0
16	14	26	51	423	224.0	-89832.0	93787.0	-5815992.0
16	14	26	51	454	225.0	-355496.0	92391.0	-5817086.0
16	14	26	51	455	226.0	-633691.0	90993.0	-5816558.0
16	14	26	51	455	227.0	-899962.0	89788.0	-5815942.0
16	14	26	51	455	228.0	-1077563.0	88295.0	-5815331.0
16	14	26	51	455	229.0	-1130617.0	87383.0	-5815717.0
16	14	26	51	456	230.0	-1128446.0	86586.0	-5816026.0
16	14	26	51	456	231.0	-1087081.0	84748.0	-5815473.0
16	14	26	51	456	232.0	-984607.0	82813.0	-5814981.0
16	14	26	51	457	233.0	-855159.0	80469.0	-5815647.0
16	14	26	51	457	234.0	-732154.0	78485.0	-5815581.0
16	14	26	51	457	235.0	-671044.0	76562.0	-5815052.0
16	14	26	51	457	236.0	-675379.0	74938.0	-5815037.0
16	14	26	51	481	237.0	-814023.0	73103.0	-5816336.0
16	14	26	51	482	238.0	-1018327.0	70565.0	-5815987.0
16	14	26	51	482	239.0	-1016560.0	68184.0	-5815429.0
16	14	26	51	482	240.0	-686412.0	65333.0	-5815061.0
16	14	26	51	482	241.0	-213268.0	63258.0	-5816051.0
16	14	26	51	483	242.0	189784.0	60682.0	-5815952.0
16	14	26	51	483	244.0	321604.0	55357.0	-5814907.0
16	14	26	51	483	245.0	108569.0	51790.0	-5816089.0
16	14	26	51	484	246.0	-94637.0	48461.0	-5816241.0
16	14	26	51	484	247.0	-241996.0	45349.0	-5815656.0
16	14	26	51	510	248.0	-401660.0	43149.0	-5814966.0
16	14	26	51	510	249.0	-526955.0	40938.0	-5815454.0
16	14	26	51	510	250.0	-569306.0	38274.0	-5816366.0
16	14	26	51	511	251.0	-538667.0	36347.0	-5815924.0
16	14	26	51	511	252.0	-433941.0	34721.0	-5815281.0
16	14	26	51	511	253.0	-276699.0	32360.0	-5815859.0
16	14	26	51	511	254.0	-75314.0	29894.0	-5816901.0
16	14	26	51	512	255.0	133022.0	27828.0	-5816486.0
16	14	26	51	512	0.0	350616.0	26088.0	-5815832.0
16	14	26	51	512	1.0	565472.0	24256.0	-5815467.0
16	14	26	51	513	2.0	752292.0	22429.0	-5816471.0
16	14	26	51	513	3.0	920953.0	20482.0	-5816818.0
16	14	26	51	513	4.0	1061343.0	18381.0	-5816158.0
16	14	26	51	513	5.0	1163198.0	16015.0	-5815602.0
16	14	26	51	514	6.0	1231109.0	14149.0	-5816168.0
16	14	26	51	514	10.0	1336246.0	6706.0	-5815748.0
16	14	26	51	514	11.0	1328013.0	4435.0	-5817176.0
16	14	26	51	514	12.0	1337023.0	1576.0	-5817169.0
16	14	26	51	515	13.0	1354785.0	165.0	-5816579.0
16	14	26	51	515	14.0	1397532.0	-1420.0	-5816031.0
16	14	26	51	515	15.0	1461846.0	-3391.0	-5816769.0
16	14	26	51	539	16.0	1544819.0	-5370.0	-5817166.0
16	14	26	51	568	17.0	1633877.0	-6756.0	-5816631.0
16	14	26	51	569	18.0	1721721.0	-7279.0	-5815958.0
16	14	26	51	569	19.0	1797946.0	-7719.0	-5816114.0
16	14	26	51	569	20.0	1853604.0	-10076.0	-5817062.0
16	14	26	51	569	21.0	1888872.0	-12267.0	-5816652.0
16	14	26	51	570	22.0	1901691.0	-14327.0	-5816013.0
16	14	26	51	570	23.0	1903929.0	-15818.0	-5815713.0
16	14	26	51	570	24.0	1898017.0	-17311.0	-5816909.0
16	14	26	51	570	25.0	1892495.0	-18699.0	-5817004.0
16	14	26	51	571	26.0	1885864.0	-20614.0	-5816402.0
16	14	26	51	571	27.0	1869207.0	-22285.0	-5815981.0
16	14	26	51	571	28.0	1853668.0	-22959.0	-5817090.0
16	14	26	51	572	29.0	1838606.0	-24188.0	-5817485.0
16	14	26	51	572	30.0	1813791.0	-25501.0	-5816839.0
16	14	26	51	572	33.0	1711254.0	-30122.0	-5817600.0
16	14	26	51	573	34.0	1664581.0	-32698.0	-5817254.0
16	14	26	51	573	35.0	1615594.0	-34091.0	-5816593.0
16	14	26	51	573	36.0	1555047.0	-34902.0	-5816331.0
16	14	26	51	573	37.0	1452365.0	-35878.0	-5817439.0
16	14	26	51	574	38.0	1271459.0	-36755.0	-5817391.0
16	14	26	51	598	39.0	979673.0	-37712.0	-5816703.0
16	14	26	51	598	40.0	619731.0	-38136.0	-5816117.0
16	14	26	51	599	41.0	262325.0	-37776.0	-5816637.0
16	14	26	51	599	42.0	-51246.0	-38475.0	-5817312.0
16	14	26	51	599	43.0	-300011.0	-39409.0	-5816684.0
16	14	26	51	599	44.0	-463342.0	-40769.0	-5816081.0
16	14	26	51	600	45.0	-539787.0	-41755.0	-5816299.0
16	14	26	51	600	46.0	-541964.0	-42442.0	-5817035.0
16	14	26	51	600	47.0	-485566.0	-42837.0	-5816569.0
16	14	26	51	601	48.0	-402642.0	-43339.0	-5815994.0
16	14	26	51	601	49.0	-298357.0	-43619.0	-5816273.0
16	14	26	51	601	50.0	-191106.0	-43350.0	-5816842.0
16	14	26	51	601	51.0	-113359.0	-43485.0	-5816312.0
16	14	26	51	602	52.0	-61671.0	-44072.0	-5815714.0
16	14	26	51	602	53.0	-20963.0	-44407.0	-5816103.0
16	14	26	51	602	55.0	16248.0	-45548.0	-5816003.0
16	14	26	51	603	56.0	-3892.0	-46784.0	-5815659.0
16	14	26	51	603	57.0	-30820.0	-48299.0	-5816862.0
16	14	26	51	603	58.0	-53527.0	-47932.0	-5816773.0
16	14	26	51	603	59.0	-91357.0	-47935.0	-5816211.0
16	14	26	51	604	60.0	-128867.0	-47831.0	-5815577.0
16	14	26	51	629	61.0	-144799.0	-47731.0	-5816109.0
16	14	26	51	658	62.0	-142329.0	-47472.0	-5816823.0
16	14	26	51	659	63.0	-128394.0	-45821.0	-5816296.0
16	14	26	51	659	64.0	-106786.0	-44808.0	-5815652.0
16	14	26	51	659	65.0	-87281.0	-44834.0	-5816106.0
16	14	26	51	660	66.0	-85688.0	-44004.0	-5817278.0
16	14	26	51	660	67.0	-109065.0	-43064.0	-5816811.0
16	14	26	51	660	68.0	-110374.0	-42924.0	-5816172.0
16	14	26	51	660	69.0	-69116.0	-42729.0	-5815636.0
16	14	26	51	661	70.0	7953.0	-41683.0	-5816586.0
16	14	26	51	661	71.0	62813.0	-41225.0	-5817177.0
16	14	26	51	661	72.0	85709.0	-40784.0	-5816597.0
16	14	26	51	662	73.0	105031.0	-40392.0	-5816002.0
16	14	26	51	662	74.0	173721.0	-39903.0	-5816817.0
16	14	26	51	662	75.0	320713.0	-39158.0	-5817738.0
16	14	26	51	662	77.0	578226.0	-38479.0	-5816556.0
16	14	26	51	663	78.0	668412.0	-38211.0	-5816347.0
16	14	26	51	663	79.0	744738.0	-38541.0	-5817663.0
16	14	26	51	663	80.0	837839.0	-38273.0	-5817707.0
16	14	26	51	664	81.0	900768.0	-37856.0	-5817057.0
16	14	26	51	664	82.0	943513.0	-37277.0	-5816460.0
16	14	26	51	664	83.0	1007254.0	-36391.0	-5816321.0
16	14	26	51	689	84.0	1021467.0	-35836.0	-5817082.0
16	14	26	51	690	85.0	990774.0	-35015.0	-5816654.0
16	14	26	51	690	86.0	984196.0	-33007.0	-5816201.0
16	14	26	51	690	87.0	1012269.0	-32607.0	-5817219.0
16	14	26	51	691	88.0	1050039.0	-32399.0	-5817719.0
16	14	26	51	691	89.0	1092208.0	-31832.0	-5817081.0
16	14	26	51	691	90.0	1120001.0	-31229.0	-5816516.0
16	14	26	51	692	91.0	1141860.0	-31211.0	-5816854.0
16	14	26	51	692	92.0	1155808.0	-30418.0	-5818001.0
16	14	26	51	692	93.0	1183962.0	-29877.0	-5817548.0
16	14	26	51	693	94.0	1182039.0	-28924.0	-5816936.0
16	14	26	51	693	95.0	1143222.0	-28529.0	-5816477.0
16	14	26	51	693	96.0	1120112.0	-28603.0	-5817787.0
16	14	26	51	693	97.0	1122739.0	-28555.0	-5818031.0
16	14	26	51	694	98.0	1082154.0	-28233.0	-5817461.0
16	14	26	51	694	100.0	897636.0	-27239.0	-5816815.0
16	14	26	51	694	101.0	817854.0	-27987.0	-5818122.0
16	14	26	51	695	102.0	724731.0	-28147.0	-5817905.0
16	14	26	51	695	103.0	636571.0	-27539.0	-5817197.0
16	14	26	51	695	104.0	517839.0	-27642.0	-5816819.0
16	14	26	51	695	105.0	395079.0	-27427.0	-5817972.0
16	14	26	51	719	106.0	299490.0	-27297.0	-5818421.0
16	14	26	51	720	107.0	205248.0	-26801.0	-5817784.0
16	14	26	51	749	108.0	109328.0	-25031.0	-5817236.0
16	14	26	51	750	109.0	44489.0	-24100.0	-5817551.0
16	14	26	51	750	110.0	-628.0	-23424.0	-5818514.0
16	14	26	51	750	111.0	-13501.0	-23385.0	-5817959.0
16	14	26	51	750	112.0	3152.0	-23082.0	-5817393.0
16	14	26	51	751	113.0	-21737.0	-23956.0	-5817016.0
16	14	26	51	751	114.0	-77590.0	-23888.0	-5818304.0
16	14	26	51	751	115.0	-81092.0	-23757.0	-5818330.0
16	14	26	51	752	116.0	-55927.0	-24444.0	-5817737.0
16	14	26	51	752	117.0	-42202.0	-23758.0	-5817074.0
16	14	26	51	752	118.0	-44830.0	-23226.0	-5817409.0
16	14	26	51	753	119.0	-63816.0	-23273.0	-5818669.0
16	14	26	51	753	120.0	-61742.0	-23187.0	-5818304.0
16	14	26	51	753	122.0	49202.0	-23006.0	-5817388.0
16	14	26	51	754	123.0	106481.0	-23173.0	-5818595.0
16	14	26	51	754	124.0	143139.0	-23136.0	-5818585.0
16	14	26	51	754	125.0	159636.0	-22383.0	-5817898.0
16	14	26	51	754	126.0	210608.0	-22106.0	-5817384.0
16	14	26	51	755	127.0	260583.0	-21708.0	-5818170.0
16	14	26	51	755	128.0	299978.0	-20829.0	-5818703.0
16	14	26	51	778	129.0	311379.0	-20530.0	-5818094.0
16	14	26	51	778	130.0	313299.0	-20211.0	-5817484.0
16	14	26	51	778	131.0	337757.0	-19191.0	-5817302.0
16	14	26	51	779	132.0	382499.0	-19014.0	-5818774.0
16	14	26	51	779	133.0	407586.0	-19264.0	-5818741.0
16	14	26	51	779	134.0	438029.0	-19532.0	-5818055.0
16	14	26	51	780	135.0	489884.0	-19308.0	-5817635.0
16	14	26	51	809	136.0	513493.0	-19491.0	-5818761.0
16	14	26	51	810	137.0	536821.0	-19485.0	-5819186.0
16	14	26	51	810	138.0	541462.0	-19067.0	-5818511.0
16	14	26	51	832	139.0	502209.0	-18861.0	-5817948.0
16	14	26	51	833	140.0	462600.0	-19464.0	-5818017.0
16	14	26	51	833	141.0	451665.0	-19131.0	-5818714.0
16	14	26	51	833	142.0	453551.0	-18794.0	-5818240.0
16	14	26	51	834	143.0	355818.0	-19280.0	-5817627.0
16	14	26	51	834	145.0	-157340.0	-19318.0	-5818505.0
16	14	26	51	834	146.0	-377438.0	-19687.0	-5817961.0
16	14	26	51	834	147.0	-522669.0	-20269.0	-5817305.0
16	14	26	51	835	148.0	-549200.0	-19992.0	-5817739.0
16	14	26	51	835	149.0	-433249.0	-19237.0	-5818319.0
16	14	26	51	835	150.0	-197137.0	-19333.0	-5817854.0
16	14	26	51	836	151.0	121213.0	-19117.0	-5817302.0
16	14	26	51	836	167.0	287257.0	-13243.0	-5817501.0
16	14	26	51	836	168.0	526230.0	-13379.0	-5817404.0
16	14	26	51	837	169.0	656848.0	-14437.0	-5818749.0
16	14	26	51	837	170.0	694671.0	-14029.0	-5818689.0
16	14	26	51	837	171.0	656037.0	-13469.0	-5818066.0
16	14	26	51	837	172.0	554034.0	-13012.0	-5817605.0
16	14	26	51	838	173.0	380818.0	-12381.0	-5818454.0
16	14	26	51	859	174.0	213146.0	-11605.0	-5819246.0
16	14	26	51	859	175.0	114934.0	-11208.0	-5818631.0
16	14	26	51	859	176.0	68381.0	-10194.0	-5818058.0
16	14	26	51	860	177.0	98926.0	-9764.0	-5817907.0
16	14	26	51	860	178.0	191136.0	-8976.0	-5819209.0
16	14	26	51	861	179.0	288659.0	-8140.0	-5818963.0
16	14	26	51	861	180.0	358816.0	-7221.0	-5818365.0
16	14	26	51	861	181.0	387003.0	-7575.0	-5817746.0
16	14	26	51	861	182.0	372898.0	-7105.0	-5817971.0
16	14	26	51	885	183.0	338146.0	-6238.0	-5819182.0
16	14	26	51	885	184.0	298311.0	-6479.0	-5818781.0
16	14	26	51	886	185.0	258573.0	-6505.0	-5818138.0
16	14	26	51	886	186.0	248894.0	-5496.0	-5817831.0
16	14	26	51	886	187.0	269601.0	-4657.0	-5818894.0
16	14	26	51	887	188.0	297474.0	-4328.0	-5818856.0
16	14	26	51	887	190.0	303986.0	-3906.0	-5817727.0
16	14	26	51	887	191.0	284487.0	-4570.0	-5818723.0
16	14	26	51	887	192.0	277403.0	-4468.0	-5819161.0
16	14	26	51	888	193.0	281118.0	-4161.0	-5818551.0
16	14	26	51	888	194.0	267400.0	-3936.0	-5817943.0
16	14	26	51	888	195.0	242121.0	-3828.0	-5818276.0
16	14	26	51	911	196.0	224095.0	-3549.0	-5819322.0
16	14	26	51	912	197.0	241263.0	-3111.0	-5818907.0
16	14	26	51	912	198.0	279096.0	-1832.0	-5818276.0
16	14	26	51	912	199.0	320636.0	-1242.0	-5817778.0
16	14	26	51	913	200.0	369404.0	-957.0	-5818553.0
16	14	26	51	913	201.0	427580.0	-848.0	-5819062.0
16	14	26	51	913	202.0	490813.0	-961.0	-5818425.0
16	14	26	51	913	203.0	561809.0	-1211.0	-5817929.0
16	14	26	51	914	204.0	651833.0	-1112.0	-5818769.0
16	14	26	51	914	205.0	745394.0	-413.0	-5819518.0
16	14	26	51	914	206.0	826430.0	-6.0	-5818910.0
16	14	26	51	915	207.0	900223.0	533.0	-5818311.0
16	14	26	51	915	208.0	958890.0	1323.0	-5818089.0
16	14	26	51	915	209.0	987753.0	1655.0	-5819401.0
16	14	26	51	915	210.0	994166.0	2051.0	-5819203.0
16	14	26	51	916	212.0	976873.0	2594.0	-5817925.0
16	14	26	51	916	213.0	944318.0	2696.0	-5818676.0
16	14	26	51	916	214.0	880950.0	2006.0	-5819416.0
16	14	26	51	917	215.0	796721.0	2641.0	-5818929.0
16	14	26	51	917	216.0	712010.0	3386.0	-5818246.0
16	14	26	51	917	217.0	628026.0	4274.0	-5818544.0
16	14	26	51	938	218.0	550358.0	4816.0	-5819709.0
16	14	26	51	964	219.0	490083.0	5645.0	-5819364.0
16	14	26	51	965	220.0	444463.0	7081.0	-5818696.0
16	14	26	51	965	221.0	405936.0	8896.0	-5818416.0
16	14	26	51	965	222.0	376109.0	9506.0	-5819509.0
16	14	26	51	966	223.0	347602.0	11231.0	-5819638.0
16	14	26	51	966	224.0	333068.0	12769.0	-5818961.0
16	14	26	51	966	225.0	334673.0	14106.0	-5818579.0
16	14	26	51	967	226.0	339129.0	15307.0	-5819539.0
16	14	26	51	967	227.0	335633.0	16943.0	-5819873.0
16	14	26	51	967	228.0	310739.0	18942.0	-5819176.0
16	14	26	51	967	229.0	260755.0	21420.0	-5818591.0
16	14	26	51	968	230.0	202785.0	24079.0	-5818110.0
16	14	26	51	968	231.0	132773.0	26237.0	-5819149.0
16	14	26	51	968	232.0	57873.0	29343.0	-5819262.0
16	14	26	51	969	233.0	1586.0	33688.0	-5818674.0
16	14	26	51	969	235.0	-74404.0	42403.0	-5819077.0
16	14	26	51	969	236.0	-107435.0	46363.0	-5818859.0
16	14	26	51	969	237.0	-125489.0	51338.0	-5818323.0
16	14	26	51	970	238.0	-136355.0	55508.0	-5819014.0
16	14	26	51	970	239.0	-142847.0	59784.0	-5819644.0
16	14	26	51	970	240.0	-145171.0	64287.0	-5819041.0
16	14	26	51	993	241.0	-131576.0	68034.0	-5818463.0
16	14	26	52	16	242.0	-104883.0	71711.0	-5818319.0
16	14	26	52	17	243.0	-65252.0	76242.0	-5819041.0
16	14	26	52	17	244.0	-20275.0	79176.0	-5818582.0
16	14	26	52	17	245.0	29299.0	81535.0	-5817985.0
16	14	26	52	18	246.0	95565.0	83984.0	-5817970.0
16	14	26	52	18	247.0	150692.0	86738.0	-5818774.0
16	14	26	52	18	248.0	189619.0	88638.0	-5818357.0
16	14	26	52	18	249.0	224468.0	90788.0	-5817756.0
16	14	26	52	19	250.0	249938.0	92769.0	-5817913.0
16	14	26	52	19	251.0	263628.0	94686.0	-5819026.0
16	14	26	52	19	252.0	272417.0	96423.0	-5818665.0
16	14	26	52	20	253.0	274724.0	97736.0	-5818021.0
16	14	26	52	20	254.0	269248.0	99219.0	-5818044.0
16	14	26	52	20	255.0	259864.0	100528.0	-5819086.0
16	14	26	52	20	1.0	235435.0	102541.0	-5818076.0
16	14	26	52	21	2.0	213659.0	103165.0	-5817541.0
16	14	26	52	21	3.0	177915.0	103186.0	-5818461.0
16	14	26	52	21	4.0	137659.0	103848.0	-5818761.0
16	14	26	52	22	5.0	103376.0	103629.0	-5818186.0
16	14	26	52	22	6.0	74358.0	103653.0	-5817517.0
16	14	26	52	22	7.0	50819.0	103911.0	-5817806.0
16	14	26	52	42	8.0	27874.0	103808.0	-5818947.0
16	14	26	52	42	9.0	11232.0	103621.0	-5818588.0
16	14	26	52	42	10.0	-1647.0	104189.0	-5817900.0
16	14	26	52	43	11.0	-13958.0	103030.0	-5817902.0
16	14	26	52	43	12.0	-18901.0	101705.0	-5819331.0
16	14	26	52	44	13.0	-18984.0	100379.0	-5819217.0
16	14	26	52	44	14.0	-17152.0	98349.0	-5818508.0
16	14	26	52	44	15.0	-9257.0	95269.0	-5817971.0
16	14	26	52	45	16.0	-25986.0	93146.0	-5818273.0
16	14	26	52	45	17.0	-88741.0	91383.0	-5819184.0
16	14	26	52	45	18.0	-245890.0	89616.0	-5818580.0
16	14	26	52	46	19.0	-457127.0	88700.0	-5817964.0
16	14	26	52	46	20.0	-501059.0	86968.0	-5817508.0
16	14	26	52	65	21.0	-235325.0	85285.0	-5818480.0
16	14	26	52	66	22.0	259713.0	83369.0	-5818398.0
16	14	26	52	66	24.0	1144310.0	80341.0	-5817656.0
16	14	26	52	66	25.0	1212408.0	77530.0	-5818656.0
16	14	26	52	67	26.0	1016676.0	75272.0	-5818369.0
16	14	26	52	67	27.0	746999.0	73426.0	-5817805.0
16	14	26	52	67	28.0	515413.0	71941.0	-5818441.0
16	14	26	52	68	29.0	315680.0	69873.0	-5819199.0
16	14	26	52	91	30.0	121139.0	67598.0	-5818619.0
16	14	26	52	91	31.0	-27507.0	66183.0	-5818018.0
16	14	26	52	91	32.0	-78426.0	65841.0	-5817721.0
16	14	26	52	92	33.0	-25257.0	63626.0	-5819013.0
16	14	26	52	92	34.0	99511.0	61344.0	-5819039.0
16	14	26	52	93	35.0	271041.0	58962.0	-5818447.0
16	14	26	52	93	36.0	463396.0	56067.0	-5817829.0
16	14	26	52	93	37.0	640973.0	53843.0	-5818697.0
16	14	26	52	94	38.0	778841.0	51055.0	-5819570.0
16	14	26	52	94	39.0	865391.0	48716.0	-5819085.0
16	14	26	52	94	40.0	902391.0	46231.0	-5818412.0
16	14	26	52	94	41.0	888161.0	43218.0	-5818353.0
16	14	26	52	95	42.0	796298.0	41414.0	-5819563.0
16	14	26	52	95	43.0	639385.0	39189.0	-5819415.0
16	14	26	52	95	44.0	466608.0	37113.0	-5818741.0
16	14	26	52	96	46.0	310926.0	31990.0	-5819745.0
16	14	26	52	96	47.0	361190.0	28588.0	-5819911.0
16	14	26	52	96	48.0	454539.0	24860.0	-5819235.0
16	14	26	52	96	49.0	563571.0	22386.0	-5818770.0
16	14	26	52	97	50.0	663519.0	20156.0	-5819476.0
16	14	26	52	97	51.0	729975.0	17727.0	-5820144.0
16	14	26	52	97	52.0	754655.0	15429.0	-5819512.0
16	14	26	52	124	53.0	745207.0	13214.0	-5818972.0
16	14	26	52	125	54.0	715879.0	11405.0	-5818554.0
16	14	26	52	125	55.0	674704.0	9482.0	-5819441.0
16	14	26	52	125	56.0	626786.0	7176.0	-5819262.0
16	14	26	52	142	57.0	566213.0	5204.0	-5818671.0
16	14	26	52	143	58.0	489905.0	2612.0	-5818418.0
16	14	26	52	143	59.0	403692.0	33.0	-5819091.0
16	14	26	52	143	60.0	321449.0	-2205.0	-5818731.0
16	14	26	52	144	61.0	253256.0	-3701.0	-5818233.0
16	14	26	52	144	62.0	205209.0	-5351.0	-5819143.0
16	14	26	52	144	63.0	182329.0	-7229.0	-5819530.0
16	14	26	52	145	64.0	176765.0	-9224.0	-5818897.0
16	14	26	52	145	65.0	178011.0	-10973.0	-5818301.0
16	14	26	52	145	66.0	181468.0	-13219.0	-5818467.0
16	14	26	52	145	67.0	178511.0	-16037.0	-5819091.0
16	14	26	52	146	69.0	166229.0	-20611.0	-5817997.0
16	14	26	52	146	70.0	166126.0	-23216.0	-5818441.0
16	14	26	52	146	71.0	181521.0	-24375.0	-5818990.0
16	14	26	52	146	72.0	211937.0	-25100.0	-5818475.0
16	14	26	52	147	73.0	251877.0	-26442.0	-5817836.0
16	14	26	52	147	74.0	281134.0	-28139.0	-5818208.0
16	14	26	52	170	75.0	294212.0	-29687.0	-5819286.0
16	14	26	52	170	76.0	290481.0	-30579.0	-5818880.0
16	14	26	52	171	77.0	272830.0	-31127.0	-5818220.0
16	14	26	52	172	78.0	251069.0	-32890.0	-5818672.0
16	14	26	52	172	79.0	227738.0	-34089.0	-5819891.0
16	14	26	52	197	80.0	216099.0	-34937.0	-5819497.0
16	14	26	52	197	81.0	219642.0	-36181.0	-5818851.0
16	14	26	52	197	82.0	235455.0	-36819.0	-5818274.0
16	14	26	52	197	83.0	266221.0	-37990.0	-5818657.0
16	14	26	52	198	84.0	308409.0	-39604.0	-5819841.0
16	14	26	52	198	85.0	353424.0	-40338.0	-5819416.0
16	14	26	52	198	86.0	400057.0	-41222.0	-5818775.0
16	14	26	52	199	87.0	440541.0	-41489.0	-5818507.0
16	14	26	52	199	88.0	472350.0	-41908.0	-5819592.0
16	14	26	52	225	89.0	489513.0	-42679.0	-5819557.0
16	14	26	52	225	91.0	519792.0	-43486.0	-5818487.0
16	14	26	52	226	92.0	532968.0	-44564.0	-5819504.0
16	14	26	52	226	93.0	542790.0	-45539.0	-5819807.0
16	14	26	52	226	94.0	538966.0	-45406.0	-5819167.0
16	14	26	52	227	95.0	519590.0	-45689.0	-5818574.0
16	14	26	52	227	96.0	487341.0	-46031.0	-5818959.0
16	14	26	52	227	97.0	442036.0	-45426.0	-5820208.0
16	14	26	52	228	98.0	391297.0	-44663.0	-5819738.0
16	14	26	52	228	99.0	335891.0	-44780.0	-5819117.0
16	14	26	52	228	100.0	281561.0	-44946.0	-5818557.0
16	14	26	52	229	101.0	222259.0	-45178.0	-5819626.0
16	14	26	52	229	102.0	166140.0	-45410.0	-5820044.0
16	14	26	52	229	103.0	115386.0	-44672.0	-5819487.0
16	14	26	52	229	104.0	65003.0	-44221.0	-5818809.0
16	14	26	52	230	113.0	-136754.0	-40171.0	-5819036.0
16	14	26	52	230	114.0	-129985.0	-40017.0	-5819619.0
16	14	26	52	230	115.0	-99936.0	-40335.0	-5820395.0
16	14	26	52	253	116.0	-45827.0	-39972.0	-5819756.0
16	14	26	52	254	117.0	27268.0	-39718.0	-5819206.0
16	14	26	52	254	118.0	123380.0	-39312.0	-5818806.0
16	14	26	52	254	119.0	228311.0	-39017.0	-5819624.0
16	14	26	52	281	120.0	337409.0	-38231.0	-5819446.0
16	14	26	52	281	121.0	432383.0	-37576.0	-5818887.0
16	14	26	52	282	122.0	504832.0	-35987.0	-5818590.0
16	14	26	52	282	123.0	544037.0	-35858.0	-5819804.0
16	14	26	52	282	124.0	544748.0	-35805.0	-5819644.0
16	14	26	52	283	125.0	516457.0	-36495.0	-5819077.0
16	14	26	52	283	126.0	467813.0	-36667.0	-5818554.0
16	14	26	52	283	127.0	406919.0	-36799.0	-5819687.0
16	14	26	52	284	128.0	340165.0	-36768.0	-5819961.0
16	14	26	52	284	129.0	274680.0	-36437.0	-5819391.0
16	14	26	52	284	130.0	206866.0	-35994.0	-5818709.0
16	14	26	52	284	131.0	140836.0	-35661.0	-5818546.0
16	14	26	52	285	132.0	81271.0	-35441.0	-5819747.0
16	14	26	52	285	133.0	35863.0	-34414.0	-5819701.0
16	14	26	52	285	134.0	2711.0	-34087.0	-5819004.0
16	14	26	52	286	136.0	-30654.0	-33782.0	-5819622.0
16	14	26	52	286	137.0	-37775.0	-34496.0	-5819969.0
16	14	26	52	286	138.0	-37059.0	-33842.0	-5819283.0
16	14	26	52	287	139.0	-43082.0	-33152.0	-5818830.0
16	14	26	52	287	140.0	-59202.0	-31890.0	-5819674.0
16	14	26	52	287	141.0	-92674.0	-30553.0	-5820251.0
16	14	26	52	309	142.0	-127731.0	-29421.0	-5819584.0
16	14	26	52	309	143.0	-165587.0	-28028.0	-5819019.0
16	14	26	52	310	144.0	-202115.0	-26164.0	-5818548.0
16	14	26	52	311	145.0	-233645.0	-24819.0	-5819766.0
16	14	26	52	311	146.0	-259431.0	-24162.0	-5819919.0
16	14	26	52	312	147.0	-275481.0	-23114.0	-5819328.0
16	14	26	52	313	148.0	-279941.0	-22508.0	-5818798.0
16	14	26	52	314	149.0	-278682.0	-22901.0	-5819772.0
16	14	26	52	314	150.0	-266181.0	-22646.0	-5820129.0
16	14	26	52	315	151.0	-248615.0	-22486.0	-5819555.0
16	14	26	52	315	152.0	-221746.0	-22080.0	-5818927.0
16	14	26	52	316	153.0	-187191.0	-21977.0	-5818577.0
16	14	26	52	316	154.0	-149726.0	-22000.0	-5819841.0
16	14	26	52	317	155.0	-107916.0	-21882.0	-5820132.0
16	14	26	52	317	156.0	-57687.0	-21138.0	-5819496.0
16	14	26	52	317	158.0	39784.0	-20259.0	-5820110.0
16	14	26	52	318	159.0	89842.0	-20337.0	-5820610.0
16	14	26	52	318	160.0	136744.0	-21380.0	-5819981.0
16	14	26	52	319	161.0	176231.0	-21255.0	-5819359.0
16	14	26	52	319	162.0	214639.0	-20604.0	-5819281.0
16	14	26	52	319	163.0	247984.0	-20184.0	-5820504.0
16	14	26	52	320	164.0	277259.0	-20260.0	-5820309.0
16	14	26	52	350	165.0	294978.0	-19756.0	-5819634.0
16	14	26	52	351	166.0	303973.0	-19095.0	-5819077.0
16	14	26	52	352	167.0	309222.0	-17791.0	-5819608.0
16	14	26	52	352	168.0	311243.0	-18074.0	-5820520.0
16	14	26	52	352	169.0	314877.0	-17480.0	-5819950.0
16	14	26	52	353	170.0	321999.0	-16639.0	-5819375.0
16	14	26	52	368	171.0	338687.0	-17012.0	-5819327.0
16	14	26	52	368	172.0	365268.0	-17411.0	-5820783.0
16	14	26	52	369	173.0	398006.0	-17077.0	-5820590.0
16	14	26	52	369	174.0	438803.0	-16767.0	-5819994.0
16	14	26	52	369	175.0	489157.0	-17051.0	-5819381.0
16	14	26	52	369	176.0	548746.0	-17513.0	-5820114.0
16	14	26	52	370	177.0	613714.0	-17748.0	-5820869.0
16	14	26	52	370	178.0	690095.0	-17813.0	-5820347.0
16	14	26	52	370	179.0	773043.0	-18296.0	-5819650.0
16	14	26	52	371	181.0	915559.0	-18984.0	-5820555.0
16	14	26	52	371	182.0	968849.0	-20287.0	-5820591.0
16	14	26	52	372	183.0	1016651.0	-21072.0	-5819941.0
16	14	26	52	372	184.0	1063651.0	-21556.0	-5819478.0
16	14	26	52	372	185.0	1099599.0	-21060.0	-5820332.0
16	14	26	52	372	186.0	1108963.0	-20730.0	-5820959.0
16	14	26	52	397	187.0	1061875.0	-20601.0	-5820314.0
16	14	26	52	397	188.0	959436.0	-20319.0	-5819769.0
16	14	26	52	398	189.0	822672.0	-18936.0	-5820476.0
16	14	26	52	398	190.0	688662.0	-18333.0	-5821395.0
16	14	26	52	398	191.0	531166.0	-17995.0	-5820762.0
16	14	26	52	399	192.0	264178.0	-17834.0	-5820187.0
16	14	26	52	400	193.0	-106025.0	-17144.0	-5819624.0
16	14	26	52	400	194.0	-446479.0	-16838.0	-5820603.0
16	14	26	52	400	195.0	-628429.0	-15759.0	-5820892.0
16	14	26	52	421	196.0	-615091.0	-15131.0	-5820329.0
16	14	26	52	421	197.0	-412214.0	-14435.0	-5819664.0
16	14	26	52	422	198.0	-56772.0	-14144.0	-5820166.0
16	14	26	52	422	199.0	394917.0	-13929.0	-5821149.0
16	14	26	52	422	200.0	849605.0	-13671.0	-5820771.0
16	14	26	52	423	201.0	1227979.0	-13191.0	-5820132.0
16	14	26	52	423	203.0	1635299.0	-11719.0	-5820952.0
16	14	26	52	423	204.0	1652605.0	-10978.0	-5821073.0
16	14	26	52	424	205.0	1498231.0	-11851.0	-5820422.0
16	14	26	52	424	206.0	1144037.0	-11311.0	-5819943.0
16	14	26	52	424	207.0	652064.0	-10759.0	-5820709.0
16	14	26	52	424	208.0	148807.0	-10409.0	-5821249.0
16	14	26	52	425	209.0	-318893.0	-9452.0	-5820554.0
16	14	26	52	455	210.0	-733437.0	-9082.0	-5819926.0
16	14	26	52	456	211.0	-1069453.0	-8236.0	-5819249.0
16	14	26	52	456	212.0	-1248179.0	-6999.0	-5819774.0
16	14	26	52	456	213.0	-1210878.0	-6620.0	-5820061.0
16	14	26	52	457	214.0	-948930.0	-6266.0	-5819554.0
16	14	26	52	457	215.0	-487900.0	-6157.0	-5819548.0
16	14	26	52	457	216.0	76309.0	-5676.0	-5820887.0
16	14	26	52	457	217.0	601397.0	-5305.0	-5820612.0
16	14	26	52	458	218.0	959719.0	-5258.0	-5820083.0
16	14	26	52	458	219.0	1103337.0	-4978.0	-5819611.0
16	14	26	52	458	220.0	1054684.0	-3984.0	-5820694.0
16	14	26	52	459	221.0	878468.0	-4162.0	-5821081.0
16	14	26	52	459	222.0	643107.0	-3491.0	-5820484.0
16	14	26	52	459	223.0	419110.0	-2789.0	-5819783.0
16	14	26	52	460	224.0	247034.0	-2617.0	-5819926.0
16	14	26	52	460	226.0	60596.0	-1678.0	-5820739.0
16	14	26	52	460	227.0	15421.0	-2649.0	-5820064.0
16	14	26	52	460	228.0	-18513.0	-2852.0	-5819684.0
16	14	26	52	461	229.0	-59370.0	-1972.0	-5820976.0
16	14	26	52	461	230.0	-103841.0	-1702.0	-5821272.0
16	14	26	52	462	231.0	-151450.0	-1511.0	-5820620.0
16	14	26	52	489	232.0	-190182.0	-997.0	-5819997.0
16	14	26	52	490	233.0	-211503.0	-221.0	-5820212.0
16	14	26	52	530	234.0	-202327.0	703.0	-5821372.0
16	14	26	52	530	235.0	-149460.0	593.0	-5820956.0
16	14	26	52	530	236.0	-52139.0	-231.0	-5820372.0
16	14	26	52	561	237.0	80111.0	-1136.0	-5820504.0
16	14	26	52	561	238.0	227829.0	-1770.0	-5821794.0
16	14	26	52	561	239.0	378802.0	-1661.0	-5821479.0
16	14	26	52	562	240.0	511170.0	-1279.0	-5820901.0
16	14	26	52	562	241.0	610951.0	-914.0	-5820310.0
16	14	26	52	562	242.0	667218.0	-414.0	-5820383.0
16	14	26	52	563	243.0	672655.0	-11.0	-5821525.0
16	14	26	52	563	244.0	637655.0	133.0	-5821156.0
16	14	26	52	563	245.0	572029.0	168.0	-5820566.0
16	14	26	52	564	246.0	497163.0	143.0	-5820230.0
16	14	26	52	564	248.0	378963.0	815.0	-5821662.0
16	14	26	52	564	249.0	353303.0	872.0	-5821076.0
16	14	26	52	564	15.0	32880.0	11794.0	-5821056.0
16	14	26	52	565	16.0	51017.0	11737.0	-5820390.0
16	14	26	52	565	17.0	74958.0	12536.0	-5820332.0
16	14	26	52	565	18.0	104698.0	13529.0	-5821456.0
16	14	26	52	566	19.0	140990.0	14673.0	-5821272.0
16	14	26	52	566	20.0	179724.0	15925.0	-5820563.0
16	14	26	52	597	21.0	218435.0	17719.0	-5820136.0
16	14	26	52	597	22.0	252100.0	19649.0	-5821043.0
16	14	26	52	598	23.0	285766.0	22446.0	-5821376.0
16	14	26	52	598	24.0	324242.0	24207.0	-5820690.0
16	14	26	52	598	25.0	374832.0	25811.0	-5820121.0
16	14	26	52	598	26.0	428162.0	26841.0	-5820152.0
16	14	26	52	599	27.0	475294.0	28452.0	-5821597.0
16	14	26	52	599	28.0	509888.0	30929.0	-5821271.0
16	14	26	52	599	29.0	535488.0	33427.0	-5820689.0
16	14	26	52	600	30.0	556686.0	35537.0	-5820196.0
16	14	26	52	600	31.0	573034.0	38064.0	-5820919.0
16	14	26	52	600	32.0	583266.0	40514.0	-5820917.0
16	14	26	52	600	33.0	588434.0	42781.0	-5820356.0
16	14	26	52	601	34.0	588726.0	45455.0	-5820048.0
16	14	26	52	601	35.0	583702.0	48110.0	-5820881.0
16	14	26	52	601	37.0	564041.0	52909.0	-5819940.0
16	14	26	52	602	38.0	545048.0	55050.0	-5819510.0
16	14	26	52	602	39.0	516366.0	56690.0	-5820412.0
16	14	26	52	602	40.0	475616.0	59178.0	-5820274.0
16	14	26	52	603	41.0	421383.0	62053.0	-5819749.0
16	14	26	52	603	42.0	358718.0	64678.0	-5820274.0
16	14	26	52	633	43.0	287506.0	67288.0	-5821197.0
16	14	26	52	633	44.0	219056.0	69373.0	-5820651.0
16	14	26	52	633	45.0	158520.0	72339.0	-5820047.0
16	14	26	52	633	46.0	116094.0	75554.0	-5819683.0
16	14	26	52	634	47.0	98780.0	77459.0	-5820885.0
16	14	26	52	634	48.0	111719.0	79525.0	-5820809.0
16	14	26	52	634	49.0	154679.0	81509.0	-5820232.0
16	14	26	52	634	50.0	217054.0	82728.0	-5819617.0
16	14	26	52	635	51.0	289761.0	84571.0	-5820461.0
16	14	26	52	635	52.0	360015.0	86373.0	-5821111.0
16	14	26	52	635	53.0	423236.0	87338.0	-5820621.0
16	14	26	52	635	54.0	479214.0	88548.0	-5819947.0
16	14	26	52	636	55.0	525173.0	89547.0	-5819759.0
16	14	26	52	636	56.0	559696.0	90906.0	-5820992.0
16	14	26	52	636	57.0	581419.0	91668.0	-5821059.0
16	14	26	52	636	60.0	598974.0	91940.0	-5821371.0
16	14	26	52	636	61.0	604020.0	90581.0	-5821552.0
16	14	26	52	637	62.0	603996.0	90853.0	-5820853.0
16	14	26	52	637	63.0	600719.0	90952.0	-5820366.0
16	14	26	52	637	64.0	597176.0	90269.0	-5821102.0
16	14	26	52	637	65.0	591674.0	90151.0	-5821839.0
16	14	26	52	666	66.0	577485.0	89677.0	-5821207.0
16	14	26	52	667	67.0	544619.0	89203.0	-5820621.0
16	14	26	52	667	68.0	454364.0	89076.0	-5820087.0
16	14	26	52	667	69.0	261962.0	88484.0	-5820884.0
16	14	26	52	667	70.0	1728.0	86823.0	-5820874.0
16	14	26	52	668	71.0	-94175.0	85552.0	-5820317.0
16	14	26	52	706	72.0	143838.0	84101.0	-5820448.0
16	14	26	52	707	73.0	630819.0	82464.0	-5821931.0
16	14	26	52	707	74.0	1166811.0	80841.0	-5821601.0
16	14	26	52	707	75.0	1540191.0	78874.0	-5821106.0
16	14	26	52	707	76.0	1613593.0	77155.0	-5820510.0
16	14	26	52	708	77.0	1425633.0	76050.0	-5821182.0
16	14	26	52	708	78.0	1136503.0	74091.0	-5821841.0
16	14	26	52	708	79.0	850298.0	71517.0	-5821318.0
16	14	26	52	708	80.0	566050.0	68839.0	-5820626.0
16	14	26	52	708	82.0	28621.0	63479.0	-5821937.0
16	14	26	52	709	83.0	-182865.0	59928.0	-5821511.0
16	14	26	52	709	84.0	-384844.0	56246.0	-5820827.0
16	14	26	52	709	85.0	-577226.0	53430.0	-5820382.0
16	14	26	52	709	86.0	-724439.0	50938.0	-5821402.0
16	14	26	52	710	87.0	-786549.0	48297.0	-5821921.0
16	14	26	52	710	88.0	-757914.0	45783.0	-5821288.0
16	14	26	52	759	89.0	-658164.0	42965.0	-5820736.0
16	14	26	52	760	90.0	-524756.0	41262.0	-5821049.0
16	14	26	52	760	91.0	-379922.0	39691.0	-5822143.0
16	14	26	52	760	92.0	-251024.0	37031.0	-5821673.0
16	14	26	52	760	93.0	-138156.0	34193.0	-5821121.0
16	14	26	52	761	94.0	-25073.0	31149.0	-5820933.0
16	14	26	52	761	95.0	91298.0	29123.0	-5822454.0
16	14	26	52	761	96.0	206454.0	27573.0	-5822509.0
16	14	26	52	762	97.0	296385.0	25643.0	-5821882.0
16	14	26	52	762	98.0	335283.0	23038.0	-5821241.0
16	14	26	52	762	99.0	331211.0	21212.0	-5821487.0
16	14	26	52	762	100.0	294654.0	19145.0	-5822556.0
16	14	26	52	762	101.0	240464.0	17234.0	-5822082.0
16	14	26	52	763	102.0	170070.0	15046.0	-5821494.0
16	14	26	52	763	103.0	91136.0	12914.0	-5821024.0
16	14	26	52	763	105.0	-44432.0	9398.0	-5822472.0
16	14	26	52	763	106.0	-86911.0	6364.0	-5821926.0
16	14	26	52	764	107.0	-107041.0	4158.0	-5821327.0
16	14	26	52	765	108.0	-114882.0	2673.0	-5822052.0
16	14	26	52	765	109.0	-124695.0	539.0	-5823052.0
16	14	26	52	766	110.0	-144938.0	-1486.0	-5822559.0
16	14	26	52	766	111.0	-173719.0	-3091.0	-5821924.0
16	14	26	52	766	112.0	-202758.0	-4245.0	-5822066.0
16	14	26	52	766	113.0	-222442.0	-4581.0	-5823233.0
16	14	26	52	767	114.0	-236332.0	-6070.0	-5822932.0
16	14	26	52	767	115.0	-248105.0	-7602.0	-5822246.0
16	14	26	52	767	116.0	-263860.0	-10009.0	-5821708.0
16	14	26	52	767	117.0	-281227.0	-11684.0	-5822027.0
16	14	26	52	800	118.0	-297977.0	-12947.0	-5823194.0
16	14	26	52	801	119.0	-305789.0	-15618.0	-5822682.0
16	14	26	52	801	120.0	-300191.0	-17370.0	-5822107.0
16	14	26	52	801	121.0	-279539.0	-18907.0	-5821699.0
16	14	26	52	801	122.0	-253499.0	-21136.0	-5822500.0
16	14	26	52	801	123.0	-215122.0	-22421.0	-5822333.0
16	14	26	52	802	124.0	-167717.0	-22782.0	-5821777.0
16	14	26	52	802	125.0	-121231.0	-23442.0	-5821891.0
16	14	26	52	802	127.0	-28345.0	-25077.0	-5822880.0
16	14	26	52	802	128.0	12480.0	-27156.0	-5822297.0
16	14	26	52	803	129.0	48614.0	-28729.0	-5821869.0
16	14	26	52	803	130.0	78863.0	-29459.0	-5823304.0
16	14	26	52	803	131.0	101221.0	-30133.0	-5823537.0
16	14	26	52	803	132.0	104078.0	-31355.0	-5822971.0
16	14	26	52	803	133.0	98406.0	-33126.0	-5822304.0
16	14	26	52	803	134.0	90359.0	-34695.0	-5822221.0
16	14	26	52	804	135.0	84288.0	-35251.0	-5823569.0
16	14	26	52	804	136.0	88213.0	-35769.0	-5823559.0
16	14	26	52	804	137.0	101697.0	-36942.0	-5822869.0
16	14	26	52	804	138.0	128587.0	-38240.0	-5822521.0
16	14	26	52	805	139.0	160023.0	-38869.0	-5823709.0
16	14	26	52	805	140.0	182563.0	-39120.0	-5824171.0
16	14	26	52	805	141.0	178669.0	-39921.0	-5823496.0
16	14	26	52	835	142.0	156719.0	-40176.0	-5822920.0
16	14	26	52	835	143.0	132726.0	-40714.0	-5822864.0
16	14	26	52	835	144.0	106735.0	-40070.0	-5824162.0
16	14	26	52	836	145.0	80277.0	-39976.0	-5823823.0
16	14	26	52	836	146.0	54096.0	-40031.0	-5823246.0
16	14	26	52	836	147.0	23933.0	-39686.0	-5822549.0
16	14	26	52	836	149.0	-50336.0	-40127.0	-5823845.0
16	14	26	52	837	150.0	-83289.0	-41021.0	-5823379.0
16	14	26	52	837	151.0	-118114.0	-41755.0	-5822707.0
16	14	26	52	837	152.0	-160536.0	-41499.0	-5822622.0
16	14	26	52	837	153.0	-203474.0	-41072.0	-5823911.0
16	14	26	52	837	154.0	-237463.0	-40619.0	-5823758.0
16	14	26	52	838	155.0	-255396.0	-40569.0	-5823124.0
16	14	26	52	871	156.0	-254774.0	-39922.0	-5822731.0
16	14	26	52	871	157.0	-253897.0	-39323.0	-5823896.0
16	14	26	52	872	158.0	-259806.0	-37155.0	-5824304.0
16	14	26	52	872	159.0	-266378.0	-36809.0	-5823632.0
16	14	26	52	872	160.0	-271114.0	-36962.0	-5823051.0
16	14	26	52	872	161.0	-268784.0	-36651.0	-5823347.0
16	14	26	52	873	162.0	-250210.0	-36684.0	-5824607.0
16	14	26	52	873	163.0	-209859.0	-36246.0	-5824190.0
16	14	26	52	873	164.0	-148367.0	-35341.0	-5823553.0
16	14	26	52	873	165.0	-63246.0	-35009.0	-5822968.0
16	14	26	52	874	166.0	43883.0	-34601.0	-5823322.0
16	14	26	52	874	167.0	152547.0	-33281.0	-5824519.0
16	14	26	52	874	168.0	246324.0	-32459.0	-5824071.0
16	14	26	52	874	169.0	342810.0	-31876.0	-5823461.0
16	14	26	52	874	170.0	446531.0	-31049.0	-5823125.0
16	14	26	52	875	172.0	622790.0	-29490.0	-5824331.0
16	14	26	52	875	173.0	719006.0	-29479.0	-5823739.0
16	14	26	52	875	174.0	839104.0	-29272.0	-5823150.0
16	14	26	52	875	175.0	979345.0	-28677.0	-5823838.0
16	14	26	52	876	176.0	1120509.0	-27880.0	-5824536.0
16	14	26	52	876	177.0	1238214.0	-27132.0	-5824026.0
16	14	26	52	904	178.0	1318457.0	-26437.0	-5823358.0
16	14	26	52	904	179.0	1345768.0	-25738.0	-5823202.0
16	14	26	52	905	180.0	1309790.0	-24142.0	-5824358.0
16	14	26	52	905	181.0	1215508.0	-23832.0	-5824272.0
16	14	26	52	905	182.0	1093603.0	-23115.0	-5823574.0
16	14	26	52	905	183.0	945766.0	-22793.0	-5823114.0
16	14	26	52	906	184.0	781470.0	-23392.0	-5823898.0
16	14	26	52	906	185.0	617163.0	-23067.0	-5824465.0
16	14	26	52	906	186.0	462403.0	-23039.0	-5823807.0
16	14	26	52	938	187.0	313774.0	-23541.0	-5823244.0
16	14	26	52	974	188.0	184489.0	-24112.0	-5823672.0
16	14	26	52	975	189.0	89583.0	-24281.0	-5824736.0
16	14	26	52	975	190.0	14608.0	-24991.0	-5824182.0
16	14	26	52	975	191.0	-46194.0	-25028.0	-5823628.0
16	14	26	52	975	192.0	-92406.0	-24714.0	-5823301.0
16	14	26	52	976	194.0	-137372.0	-24699.0	-5824601.0
16	14	26	52	976	195.0	-131369.0	-24441.0	-5824005.0
16	14	26	52	976	196.0	-102622.0	-25749.0	-5823328.0
16	14	26	52	976	197.0	-47245.0	-26340.0	-5823680.0
16	14	26	52	977	198.0	32256.0	-25940.0	-5824891.0
16	14	26	52	977	199.0	135417.0	-24677.0	-5824553.0
16	14	26	52	977	200.0	244891.0	-24217.0	-5823916.0
16	14	26	52	977	201.0	355056.0	-24623.0	-5823583.0
16	14	26	52	977	202.0	466724.0	-25224.0	-5824603.0
16	14	26	52	978	217.0	603497.0	-20557.0	-5823279.0
16	14	26	52	978	218.0	591813.0	-21510.0	-5822923.0
16	14	26	52	978	219.0	552819.0	-21309.0	-5823789.0
16	14	26	52	978	220.0	488006.0	-20659.0	-5823556.0
16	14	26	52	979	221.0	410926.0	-20660.0	-5823224.0
16	14	26	52	979	222.0	335234.0	-20376.0	-5824446.0
16	14	26	53	8	223.0	284825.0	-20354.0	-5824605.0
16	14	26	53	9	224.0	261927.0	-19839.0	-5823940.0
16	14	26	53	9	225.0	258488.0	-18559.0	-5823342.0
16	14	26	53	9	226.0	275702.0	-17873.0	-5823207.0
16	14	26	53	10	227.0	321456.0	-17609.0	-5823998.0
16	14	26	53	10	228.0	388490.0	-17343.0	-5823582.0
16	14	26	53	10	229.0	460094.0	-17034.0	-5822997.0
16	14	26	53	10	230.0	521467.0	-16815.0	-5822932.0
16	14	26	53	11	231.0	556769.0	-16791.0	-5823622.0
16	14	26	53	11	232.0	560347.0	-16848.0	-5823188.0
16	14	26	53	11	233.0	541333.0	-16614.0	-5822577.0
16	14	26	53	11	234.0	515764.0	-16665.0	-5822936.0
16	14	26	53	12	235.0	477283.0	-16093.0	-5823795.0
16	14	26	53	12	236.0	428961.0	-15711.0	-5823289.0
16	14	26	53	12	237.0	372833.0	-15727.0	-5822674.0
16	14	26	53	12	239.0	231244.0	-14926.0	-5824072.0
16	14	26	53	13	240.0	151314.0	-15077.0	-5823567.0
16	14	26	53	13	241.0	68824.0	-15950.0	-5822969.0
16	14	26	53	13	242.0	-29384.0	-15614.0	-5822771.0
16	14	26	53	13	243.0	-125929.0	-14931.0	-5824052.0
16	14	26	53	14	244.0	-238919.0	-14850.0	-5823887.0
16	14	26	53	14	245.0	-439793.0	-14101.0	-5823286.0
16	14	26	53	44	246.0	-754692.0	-13439.0	-5822591.0
16	14	26	53	44	247.0	-1078236.0	-13144.0	-5822523.0
16	14	26	53	45	248.0	-1262891.0	-11826.0	-5823509.0
16	14	26	53	45	249.0	-1243725.0	-11906.0	-5823238.0
16	14	26	53	45	250.0	-1016442.0	-12867.0	-5822599.0
16	14	26	53	45	251.0	-618834.0	-13929.0	-5822921.0
16	14	26	53	46	252.0	-110157.0	-14233.0	-5824119.0
16	14	26	53	46	253.0	433806.0	-13395.0	-5823813.0
16	14	26	53	46	254.0	933438.0	-12884.0	-5823188.0
16	14	26	53	46	255.0	1347363.0	-12176.0	-5822674.0
16	14	26	53	47	0.0	1671016.0	-11982.0	-5822654.0
16	14	26	53	47	1.0	1872364.0	-12308.0	-5823567.0
16	14	26	53	47	2.0	1901022.0	-12446.0	-5823176.0
16	14	26	53	47	3.0	1737143.0	-11376.0	-5822632.0
16	14	26	53	48	4.0	1405991.0	-10491.0	-5823406.0
16	14	26	53	48	6.0	494133.0	-9207.0	-5823331.0
16	14	26	53	48	7.0	27534.0	-9264.0	-5822711.0
16	14	26	53	48	8.0	-380182.0	-9541.0	-5822534.0
16	14	26	53	49	9.0	-644269.0	-8629.0	-5823606.0
16	14	26	53	49	10.0	-699917.0	-7981.0	-5823258.0
16	14	26	53	49	11.0	-524898.0	-7585.0	-5822719.0
16	14	26	53	80	12.0	-150182.0	-7231.0	-5822395.0
16	14	26	53	81	13.0	312337.0	-6421.0	-5823736.0
16	14	26	53	81	14.0	723879.0	-4602.0	-5823854.0
16	14	26	53	81	15.0	972178.0	-3925.0	-5823292.0
16	14	26	53	81	16.0	1029216.0	-4304.0	-5822645.0
16	14	26	53	82	17.0	931856.0	-3884.0	-5823002.0
16	14	26	53	82	18.0	730770.0	-3489.0	-5823985.0
16	14	26	53	82	19.0	488871.0	-2968.0	-5823539.0
16	14	26	53	82	20.0	246867.0	-2336.0	-5822792.0
16	14	26	53	83	21.0	43867.0	-2187.0	-5822332.0
16	14	26	53	83	22.0	-121386.0	-2228.0	-5823190.0
16	14	26	53	83	23.0	-267601.0	-2122.0	-5823811.0
16	14	26	53	83	24.0	-400187.0	-2071.0	-5823124.0
16	14	26	53	83	25.0	-520597.0	-1502.0	-5822542.0
16	14	26	53	84	26.0	-614999.0	-1448.0	-5822701.0
16	14	26	53	84	28.0	-749038.0	223.0	-5823532.0
16	14	26	53	84	29.0	-782759.0	16.0	-5822987.0
16	14	26	53	84	30.0	-766571.0	-646.0	-5822522.0
16	14	26	53	118	31.0	-708329.0	-352.0	-5823396.0
16	14	26	53	118	32.0	-627901.0	-79.0	-5823324.0
16	14	26	53	119	33.0	-510716.0	27.0	-5822758.0
16	14	26	53	119	34.0	-342377.0	-81.0	-5822386.0
16	14	26	53	119	35.0	-133786.0	-107.0	-5823135.0
16	14	26	53	120	36.0	90844.0	861.0	-5822849.0
16	14	26	53	120	37.0	287637.0	2162.0	-5822296.0
16	14	26	53	157	38.0	453889.0	2074.0	-5822040.0
16	14	26	53	157	39.0	581819.0	1984.0	-5822959.0
16	14	26	53	157	40.0	666772.0	1272.0	-5822661.0
16	14	26	53	158	41.0	711079.0	1010.0	-5822092.0
16	14	26	53	158	42.0	724276.0	851.0	-5822042.0
16	14	26	53	158	43.0	720902.0	360.0	-5822758.0
16	14	26	53	159	44.0	698946.0	69.0	-5822351.0
16	14	26	53	159	45.0	671690.0	381.0	-5821954.0
16	14	26	53	159	46.0	634613.0	594.0	-5823212.0
16	14	26	53	159	47.0	585206.0	825.0	-5823467.0
16	14	26	53	160	48.0	537851.0	782.0	-5822825.0
16	14	26	53	160	49.0	497982.0	1176.0	-5822240.0
16	14	26	53	160	51.0	455319.0	1823.0	-5822736.0
16	14	26	53	160	52.0	442551.0	1215.0	-5823124.0
16	14	26	53	161	53.0	428676.0	1391.0	-5822559.0
16	14	26	53	161	54.0	409078.0	2002.0	-5821994.0
16	14	26	53	161	55.0	385557.0	1934.0	-5822882.0
16	14	26	53	162	56.0	339213.0	1951.0	-5823365.0
16	14	26	53	194	57.0	261926.0	2819.0	-5822816.0
16	14	26	53	194	58.0	164141.0	3811.0	-5822162.0
16	14	26	53	194	59.0	66189.0	5281.0	-5822459.0
16	14	26	53	194	60.0	-22189.0	5948.0	-5823642.0
16	14	26	53	195	61.0	-106732.0	6212.0	-5823276.0
16	14	26	53	195	62.0	-192709.0	7373.0	-5822584.0
16	14	26	53	195	63.0	-284259.0	8733.0	-5822413.0
16	14	26	53	195	64.0	-394406.0	9181.0	-5823637.0
16	14	26	53	196	65.0	-498381.0	9937.0	-5823576.0
16	14	26	53	196	66.0	-578722.0	11341.0	-5822916.0
16	14	26	53	196	67.0	-627387.0	12650.0	-5822316.0
16	14	26	53	196	68.0	-640395.0	13752.0	-5821934.0
16	14	26	53	197	69.0	-633526.0	14629.0	-5822549.0
16	14	26	53	197	70.0	-611701.0	15224.0	-5822171.0
16	14	26	53	197	71.0	-600204.0	16409.0	-5821667.0
16	14	26	53	197	73.0	-644191.0	19885.0	-5823228.0
16	14	26	53	198	74.0	-618010.0	20756.0	-5822610.0
16	14	26	53	198	75.0	-541601.0	21399.0	-5822036.0
16	14	26	53	198	76.0	-426717.0	22828.0	-5822036.0
16	14	26	53	198	77.0	-271841.0	24934.0	-5822851.0
16	14	26	53	199	78.0	-94024.0	27222.0	-5822418.0
16	14	26	53	199	79.0	94763.0	29241.0	-5821848.0
16	14	26	53	252	80.0	276927.0	31481.0	-5822244.0
16	14	26	53	270	81.0	441405.0	34472.0	-5822942.0
16	14	26	53	270	82.0	596821.0	37731.0	-5822441.0
16	14	26	53	271	83.0	742478.0	39581.0	-5821831.0
16	14	26	53	271	84.0	899326.0	41844.0	-5822494.0
16	14	26	53	271	85.0	1069545.0	43761.0	-5823269.0
16	14	26	53	272	86.0	1230622.0	45967.0	-5822726.0
16	14	26	53	272	87.0	1385425.0	48142.0	-5822131.0
16	14	26	53	272	88.0	1533166.0	50962.0	-5821906.0
16	14	26	53	273	89.0	1665154.0	53789.0	-5823226.0
16	14	26	53	273	90.0	1762518.0	56888.0	-5823244.0
16	14	26	53	273	91.0	1821970.0	58978.0	-5822631.0
16	14	26	53	274	92.0	1842509.0	61363.0	-5822188.0
16	14	26	53	274	93.0	1825818.0	63324.0	-5823292.0
16	14	26	53	274	94.0	1777512.0	66015.0	-5823635.0
16	14	26	53	275	118.0	-60739.0	87193.0	-5822494.0
16	14	26	53	275	119.0	-143266.0	85594.0	-5822650.0
16	14	26	53	275	120.0	-268227.0	85093.0	-5823564.0
16	14	26	53	275	121.0	-457480.0	90137.0	-5823134.0
16	14	26	53	276	122.0	-748014.0	97095.0	-5822420.0
16	14	26	53	276	123.0	-1043129.0	103624.0	-5822747.0
16	14	26	53	276	124.0	-1080956.0	108662.0	-5824062.0
16	14	26	53	309	125.0	-763731.0	112166.0	-5823741.0
16	14	26	53	309	126.0	-242721.0	115156.0	-5823124.0
16	14	26	53	310	127.0	266103.0	117548.0	-5822664.0
16	14	26	53	310	128.0	587054.0	117853.0	-5823260.0
16	14	26	53	310	129.0	634646.0	117256.0	-5824037.0
16	14	26	53	310	130.0	493504.0	116219.0	-5823420.0
16	14	26	53	311	131.0	318081.0	115033.0	-5822826.0
16	14	26	53	311	132.0	166887.0	113026.0	-5822570.0
16	14	26	53	311	133.0	31301.0	110679.0	-5823904.0
16	14	26	53	312	134.0	-100149.0	108084.0	-5823725.0
16	14	26	53	312	135.0	-205271.0	105603.0	-5823146.0
16	14	26	53	312	136.0	-284854.0	102701.0	-5822557.0
16	14	26	53	312	137.0	-366524.0	99568.0	-5823524.0
16	14	26	53	313	138.0	-450182.0	96010.0	-5824041.0
16	14	26	53	313	139.0	-502263.0	92647.0	-5823507.0
16	14	26	53	313	141.0	-408687.0	83896.0	-5823511.0
16	14	26	53	314	142.0	-292269.0	78488.0	-5824332.0
16	14	26	53	351	143.0	-165163.0	73549.0	-5823884.0
16	14	26	53	352	144.0	-29314.0	69186.0	-5823219.0
16	14	26	53	352	145.0	115587.0	65266.0	-5823114.0
16	14	26	53	352	146.0	263295.0	61764.0	-5824380.0
16	14	26	53	353	147.0	422604.0	58786.0	-5824354.0
16	14	26	53	353	148.0	592817.0	56248.0	-5823717.0
16	14	26	53	353	149.0	747941.0	52574.0	-5823154.0
16	14	26	53	353	150.0	881109.0	48968.0	-5823381.0
16	14	26	53	354	151.0	981118.0	45566.0	-5824614.0
16	14	26	53	354	152.0	1050199.0	41894.0	-5824207.0
16	14	26	53	354	153.0	1089184.0	38506.0	-5823613.0
16	14	26	53	354	154.0	1111459.0	35227.0	-5823120.0
16	14	26	53	355	155.0	1131254.0	32190.0	-5823904.0
16	14	26	53	355	156.0	1150523.0	29353.0	-5824019.0
16	14	26	53	355	157.0	1185733.0	26809.0	-5823474.0
16	14	26	53	355	163.0	1302034.0	9361.0	-5823870.0
16	14	26	53	356	164.0	1230877.0	5730.0	-5823822.0
16	14	26	53	356	165.0	1103418.0	2071.0	-5823229.0
16	14	26	53	356	166.0	899589.0	-680.0	-5822839.0
16	14	26	53	357	167.0	648228.0	-3564.0	-5823632.0
16	14	26	53	357	168.0	381008.0	-6075.0	-5823380.0
16	14	26	53	395	169.0	115101.0	-8434.0	-5822827.0
16	14	26	53	395	170.0	-143642.0	-10728.0	-5823030.0
16	14	26	53	396	171.0	-387728.0	-12445.0	-5824307.0
16	14	26	53	396	172.0	-603932.0	-14389.0	-5823854.0
16	14	26	53	396	173.0	-789614.0	-16331.0	-5823257.0
16	14	26	53	397	174.0	-935973.0	-18894.0	-5823141.0
16	14	26	53	397	175.0	-1045982.0	-21198.0	-5824031.0
16	14	26	53	397	176.0	-1120264.0	-23341.0	-5823662.0
16	14	26	53	398	177.0	-1153114.0	-25540.0	-5823062.0
16	14	26	53	398	178.0	-1163365.0	-27051.0	-5822939.0
16	14	26	53	398	179.0	-1154846.0	-28861.0	-5824283.0
16	14	26	53	398	180.0	-1115023.0	-31258.0	-5824083.0
16	14	26	53	399	181.0	-1031496.0	-33582.0	-5823521.0
16	14	26	53	399	182.0	-885426.0	-34974.0	-5822899.0
16	14	26	53	399	183.0	-684804.0	-36571.0	-5823574.0
16	14	26	53	399	186.0	-32410.0	-44816.0	-5823154.0
16	14	26	53	400	187.0	146633.0	-47411.0	-5823759.0
16	14	26	53	400	188.0	296324.0	-48866.0	-5824847.0
16	14	26	53	443	189.0	425648.0	-50121.0	-5824425.0
16	14	26	53	443	190.0	531883.0	-50842.0	-5823748.0
16	14	26	53	444	191.0	610596.0	-51635.0	-5823413.0
16	14	26	53	444	192.0	669189.0	-52252.0	-5824492.0
16	14	26	53	444	193.0	716696.0	-52832.0	-5824736.0
16	14	26	53	445	194.0	767472.0	-52450.0	-5824049.0
16	14	26	53	445	195.0	830802.0	-52767.0	-5823487.0
16	14	26	53	445	196.0	923074.0	-52916.0	-5823837.0
16	14	26	53	445	197.0	1031556.0	-53114.0	-5825116.0
16	14	26	53	446	198.0	1141118.0	-53641.0	-5824657.0
16	14	26	53	446	199.0	1234058.0	-53199.0	-5824110.0
16	14	26	53	446	200.0	1282836.0	-52963.0	-5823474.0
16	14	26	53	446	201.0	1268318.0	-52632.0	-5824491.0
16	14	26	53	447	202.0	1180655.0	-52109.0	-5825263.0
16	14	26	53	447	203.0	1029145.0	-52008.0	-5824751.0
16	14	26	53	447	204.0	833450.0	-51634.0	-5824062.0
16	14	26	53	448	205.0	612458.0	-50905.0	-5824464.0
16	14	26	53	448	206.0	390894.0	-50509.0	-5825547.0
16	14	26	53	448	208.0	46888.0	-49830.0	-5824457.0
16	14	26	53	448	209.0	-32982.0	-49900.0	-5824061.0
16	14	26	53	449	210.0	-70401.0	-50195.0	-5824970.0
16	14	26	53	449	211.0	-95578.0	-49929.0	-5825262.0
16	14	26	53	449	212.0	-137247.0	-49179.0	-5824604.0
16	14	26	53	450	213.0	-203541.0	-48829.0	-5824069.0
16	14	26	53	489	214.0	-304471.0	-48575.0	-5824606.0
16	14	26	53	490	215.0	-436438.0	-47280.0	-5825312.0
16	14	26	53	490	216.0	-583276.0	-45336.0	-5824706.0
16	14	26	53	490	217.0	-736071.0	-44576.0	-5824117.0
16	14	26	53	490	218.0	-873211.0	-44309.0	-5823801.0
16	14	26	53	490	219.0	-981799.0	-43898.0	-5825138.0
16	14	26	53	491	220.0	-1054582.0	-42443.0	-5825107.0
16	14	26	53	491	221.0	-1075146.0	-41312.0	-5824537.0
16	14	26	53	491	222.0	-1034971.0	-40404.0	-5823964.0
16	14	26	53	491	223.0	-932702.0	-39780.0	-5824463.0
16	14	26	53	492	224.0	-778523.0	-39997.0	-5824563.0
16	14	26	53	492	225.0	-577397.0	-39462.0	-5824052.0
16	14	26	53	492	226.0	-344781.0	-38657.0	-5824172.0
16	14	26	53	492	227.0	-98874.0	-38205.0	-5825526.0
16	14	26	53	493	228.0	148308.0	-37712.0	-5825199.0
16	14	26	53	493	230.0	591411.0	-36208.0	-5823998.0
16	14	26	53	493	231.0	774024.0	-36362.0	-5824375.0
16	14	26	53	493	232.0	928208.0	-37460.0	-5825424.0
16	14	26	53	493	233.0	1071829.0	-37879.0	-5825013.0
16	14	26	53	494	234.0	1229106.0	-37844.0	-5824365.0
16	14	26	53	494	235.0	1395790.0	-37084.0	-5824759.0
16	14	26	53	494	236.0	1524859.0	-35864.0	-5825807.0
16	14	26	53	533	237.0	1578067.0	-34702.0	-5825409.0
16	14	26	53	534	238.0	1554884.0	-33683.0	-5824748.0
16	14	26	53	534	239.0	1432417.0	-31913.0	-5824281.0
16	14	26	53	535	240.0	1220051.0	-31360.0	-5825197.0
16	14	26	53	535	241.0	930509.0	-31389.0	-5825593.0
16	14	26	53	535	242.0	589051.0	-30841.0	-5824931.0
16	14	26	53	536	243.0	242048.0	-30726.0	-5824257.0
16	14	26	53	536	244.0	-79011.0	-30642.0	-5824564.0
16	14	26	53	536	245.0	-365219.0	-29964.0	-5825624.0
16	14	26	53	537	246.0	-590806.0	-28607.0	-5825172.0
16	14	26	53	537	247.0	-744279.0	-27281.0	-5824508.0
16	14	26	53	537	248.0	-832787.0	-27102.0	-5824087.0
16	14	26	53	537	249.0	-868562.0	-26659.0	-5825100.0
16	14	26	53	538	250.0	-874940.0	-26224.0	-5825442.0
16	14	26	53	538	251.0	-868786.0	-25925.0	-5824816.0
16	14	26	53	538	253.0	-846778.0	-25120.0	-5825275.0
16	14	26	53	539	254.0	-823215.0	-25692.0	-5825920.0
16	14	26	53	539	255.0	-792883.0	-26291.0	-5825301.0
16	14	26	53	539	0.0	-750264.0	-25796.0	-5824723.0
16	14	26	53	539	1.0	-691904.0	-25218.0	-5824413.0
16	14	26	53	540	2.0	-611396.0	-24406.0	-5825679.0
16	14	26	53	577	3.0	-508557.0	-24014.0	-5825591.0
16	14	26	53	577	4.0	-393666.0	-23496.0	-5825030.0
16	14	26	53	578	5.0	-277844.0	-22552.0	-5824377.0
16	14	26	53	578	6.0	-160499.0	-22089.0	-5825069.0
16	14	26	53	578	7.0	-58466.0	-21539.0	-5825997.0
16	14	26	53	578	8.0	31929.0	-21195.0	-5825534.0
16	14	26	53	579	9.0	118415.0	-20922.0	-5824873.0
16	14	26	53	579	10.0	201753.0	-20661.0	-5824759.0
16	14	26	53	579	11.0	285215.0	-19770.0	-5825969.0
16	14	26	53	579	12.0	362426.0	-19039.0	-5825919.0
16	14	26	53	580	13.0	420086.0	-19014.0	-5825256.0
16	14	26	53	580	14.0	456063.0	-20004.0	-5824834.0
16	14	26	53	580	15.0	479838.0	-20695.0	-5825691.0
16	14	26	53	581	16.0	508902.0	-20792.0	-5826109.0
16	14	26	53	581	17.0	547273.0	-21238.0	-5825458.0
16	14	26	53	581	19.0	560498.0	-22637.0	-5824892.0
16	14	26	53	582	20.0	517088.0	-24187.0	-5826106.0
16	14	26	53	582	21.0	439864.0	-25694.0	-5825681.0
16	14	26	53	582	22.0	322356.0	-25984.0	-5825126.0
16	14	26	53	582	23.0	177554.0	-26001.0	-5824674.0
16	14	26	53	583	24.0	24053.0	-26034.0	-5825763.0
16	14	26	53	622	25.0	-128750.0	-25752.0	-5825860.0
16	14	26	53	623	26.0	-274910.0	-25383.0	-5825267.0
16	14	26	53	623	27.0	-398098.0	-25403.0	-5824684.0
16	14	26	53	623	28.0	-496735.0	-24298.0	-5825613.0
16	14	26	53	624	29.0	-570019.0	-23754.0	-5826115.0
16	14	26	53	665	30.0	-612018.0	-23427.0	-5825580.0
16	14	26	53	665	31.0	-621624.0	-23392.0	-5824876.0
16	14	26	53	665	32.0	-604061.0	-22847.0	-5824865.0
16	14	26	53	666	33.0	-564776.0	-22644.0	-5826198.0
16	14	26	53	666	34.0	-513329.0	-21739.0	-5826065.0
16	14	26	53	667	35.0	-441541.0	-21238.0	-5825378.0
16	14	26	53	667	36.0	-352107.0	-20518.0	-5824877.0
16	14	26	53	667	37.0	-238894.0	-19835.0	-5825626.0
16	14	26	53	668	38.0	-95812.0	-19151.0	-5826526.0
16	14	26	53	668	39.0	63849.0	-18133.0	-5825992.0
16	14	26	53	668	40.0	237118.0	-16866.0	-5825397.0
16	14	26	53	669	42.0	619666.0	-16167.0	-5826112.0
16	14	26	53	669	43.0	830318.0	-16299.0	-5826291.0
16	14	26	53	669	44.0	1049249.0	-16462.0	-5825716.0
16	14	26	53	670	45.0	1263299.0	-15585.0	-5825147.0
16	14	26	53	708	64.0	133783.0	-7784.0	-5825692.0
16	14	26	53	709	65.0	-252076.0	-7668.0	-5824951.0
16	14	26	53	709	66.0	-699071.0	-8914.0	-5825154.0
16	14	26	53	709	67.0	-1144445.0	-9059.0	-5826163.0
16	14	26	53	710	68.0	-1545730.0	-8857.0	-5825752.0
16	14	26	53	710	69.0	-1866259.0	-8752.0	-5825060.0
16	14	26	53	710	70.0	-2025654.0	-8817.0	-5824539.0
16	14	26	53	711	71.0	-1967845.0	-8317.0	-5825401.0
16	14	26	53	711	72.0	-1697072.0	-7446.0	-5825996.0
16	14	26	53	711	73.0	-1265331.0	-6223.0	-5825434.0
16	14	26	53	712	74.0	-763670.0	-6109.0	-5824929.0
16	14	26	53	712	75.0	-296355.0	-5899.0	-5825641.0
16	14	26	53	712	76.0	41212.0	-5273.0	-5826704.0
16	14	26	53	712	77.0	197600.0	-4916.0	-5826176.0
16	14	26	53	713	78.0	175273.0	-4564.0	-5825569.0
16	14	26	53	713	79.0	28649.0	-4552.0	-5825208.0
16	14	26	53	713	80.0	-150694.0	-4393.0	-5826318.0
16	14	26	53	713	81.0	-302106.0	-3153.0	-5826340.0
16	14	26	53	714	82.0	-404842.0	-2027.0	-5825707.0
16	14	26	53	714	83.0	-433623.0	-1288.0	-5825028.0
16	14	26	53	714	84.0	-391024.0	-784.0	-5824938.0
16	14	26	53	715	85.0	-320199.0	-626.0	-5826117.0
16	14	26	53	752	87.0	-185609.0	363.0	-5825202.0
16	14	26	53	752	88.0	-144119.0	-142.0	-5824882.0
16	14	26	53	753	89.0	-126720.0	-193.0	-5826166.0
16	14	26	53	753	90.0	-125576.0	208.0	-5826107.0
16	14	26	53	753	91.0	-95256.0	33.0	-5825554.0
16	14	26	53	754	92.0	-17564.0	44.0	-5824980.0
16	14	26	53	754	93.0	86909.0	116.0	-5825672.0
16	14	26	53	754	94.0	210779.0	448.0	-5826386.0
16	14	26	53	755	95.0	329109.0	1953.0	-5825875.0
16	14	26	53	755	96.0	414776.0	2497.0	-5825210.0
16	14	26	53	755	97.0	461408.0	2538.0	-5825282.0
16	14	26	53	756	98.0	458249.0	2369.0	-5826448.0
16	14	26	53	756	99.0	407510.0	2334.0	-5826207.0
16	14	26	53	756	100.0	338958.0	2546.0	-5825512.0
16	14	26	53	757	101.0	280569.0	3314.0	-5824982.0
16	14	26	53	757	102.0	241233.0	4030.0	-5825406.0
16	14	26	53	757	103.0	222189.0	3525.0	-5826486.0
16	14	26	53	758	104.0	222801.0	4278.0	-5825926.0
16	14	26	53	758	105.0	231476.0	4853.0	-5825323.0
16	14	26	53	758	106.0	245504.0	4724.0	-5824846.0
16	14	26	53	796	107.0	254956.0	4563.0	-5825569.0
16	14	26	53	796	109.0	176911.0	5321.0	-5824881.0
16	14	26	53	797	110.0	107545.0	5003.0	-5825629.0
16	14	26	53	797	111.0	28369.0	4721.0	-5826365.0
16	14	26	53	798	112.0	-66059.0	4739.0	-5825736.0
16	14	26	53	798	113.0	-150397.0	4774.0	-5825157.0
16	14	26	53	799	114.0	-222609.0	5299.0	-5824966.0
16	14	26	53	799	115.0	-282699.0	5561.0	-5826172.0
16	14	26	53	799	116.0	-305617.0	5848.0	-5825856.0
16	14	26	53	800	117.0	-310964.0	6657.0	-5825300.0
16	14	26	53	800	118.0	-309684.0	7769.0	-5824664.0
16	14	26	53	800	119.0	-290844.0	8579.0	-5825405.0
16	14	26	53	801	120.0	-234696.0	8864.0	-5825956.0
16	14	26	53	801	121.0	-165407.0	9679.0	-5825422.0
16	14	26	53	801	122.0	-100775.0	9968.0	-5824775.0
16	14	26	53	802	123.0	-9982.0	10786.0	-5824849.0
16	14	26	53	802	124.0	52509.0	11341.0	-5826059.0
16	14	26	53	802	125.0	70403.0	11809.0	-5825828.0
16	14	26	53	803	126.0	67550.0	12307.0	-5825114.0
16	14	26	53	803	127.0	65011.0	11504.0	-5824885.0
16	14	26	53	803	128.0	67868.0	10250.0	-5825994.0
16	14	26	53	839	129.0	61548.0	10339.0	-5826015.0
16	14	26	53	839	130.0	54478.0	10795.0	-5825334.0
16	14	26	53	839	132.0	58958.0	11971.0	-5825005.0
16	14	26	53	840	133.0	59342.0	11758.0	-5826039.0
16	14	26	53	840	134.0	48966.0	12375.0	-5825546.0
16	14	26	53	840	135.0	37139.0	13664.0	-5824954.0
16	14	26	53	841	136.0	14343.0	15409.0	-5824737.0
16	14	26	53	841	137.0	12516.0	17129.0	-5825993.0
16	14	26	53	841	138.0	46355.0	18876.0	-5825875.0
16	14	26	53	842	139.0	131741.0	21530.0	-5825302.0
16	14	26	53	842	140.0	268967.0	24669.0	-5824765.0
16	14	26	53	842	141.0	431568.0	26806.0	-5825256.0
16	14	26	53	843	142.0	583231.0	28597.0	-5825482.0
16	14	26	53	843	143.0	702687.0	31198.0	-5824962.0
16	14	26	53	843	144.0	784970.0	34366.0	-5824476.0
16	14	26	53	843	145.0	799333.0	37089.0	-5825637.0
16	14	26	53	844	146.0	730961.0	40163.0	-5825926.0
16	14	26	53	844	147.0	611029.0	42474.0	-5825310.0
16	14	26	53	844	148.0	485353.0	45044.0	-5824632.0
16	14	26	53	844	149.0	404825.0	47585.0	-5824503.0
16	14	26	53	845	150.0	382654.0	50380.0	-5825915.0
16	14	26	53	845	151.0	372324.0	53079.0	-5825869.0
16	14	26	53	845	152.0	349541.0	55049.0	-5825221.0
16	14	26	53	846	154.0	248866.0	59394.0	-5825148.0
16	14	26	53	882	155.0	168460.0	61576.0	-5826014.0
16	14	26	53	882	156.0	66557.0	63149.0	-5825448.0
16	14	26	53	883	157.0	-10172.0	65429.0	-5824901.0
16	14	26	53	883	158.0	-75644.0	67305.0	-5825475.0
16	14	26	53	883	159.0	-143364.0	69899.0	-5826201.0
16	14	26	53	883	160.0	-211668.0	72151.0	-5825587.0
16	14	26	53	884	161.0	-259776.0	74240.0	-5824961.0
16	14	26	53	884	162.0	-260054.0	76546.0	-5824438.0
16	14	26	53	930	163.0	-240336.0	78986.0	-5825374.0
16	14	26	53	930	164.0	-205102.0	81024.0	-5825998.0
16	14	26	53	931	165.0	-167527.0	82446.0	-5825399.0
16	14	26	53	931	166.0	-133184.0	83277.0	-5824806.0
16	14	26	53	932	167.0	-96871.0	84838.0	-5824921.0
16	14	26	53	932	168.0	-59934.0	85828.0	-5825721.0
16	14	26	53	932	169.0	-11203.0	86972.0	-5825246.0
16	14	26	53	933	170.0	15191.0	87788.0	-5824711.0
16	14	26	53	933	171.0	30644.0	88626.0	-5825143.0
16	14	26	53	933	172.0	36804.0	89461.0	-5825630.0
16	14	26	53	934	173.0	28481.0	89717.0	-5825091.0
16	14	26	53	934	174.0	-2540.0	90721.0	-5824493.0
16	14	26	53	934	175.0	-29887.0	90438.0	-5825031.0
16	14	26	53	934	177.0	-60837.0	89370.0	-5824787.0
16	14	26	53	935	178.0	-80829.0	88018.0	-5824770.0
16	14	26	53	935	179.0	-99672.0	87739.0	-5825876.0
16	14	26	53	935	180.0	-120580.0	87028.0	-5825454.0
16	14	26	53	936	181.0	-187057.0	85904.0	-5824870.0
16	14	26	53	936	182.0	-315159.0	85209.0	-5824243.0
16	14	26	53	936	183.0	-353115.0	84504.0	-5824911.0
16	14	26	53	937	184.0	-96065.0	83596.0	-5825899.0
16	14	26	53	937	185.0	379389.0	82431.0	-5825463.0
16	14	26	53	937	186.0	878706.0	80789.0	-5824876.0
16	14	26	53	938	187.0	1247643.0	78682.0	-5825079.0
16	14	26	53	938	188.0	1348686.0	76417.0	-5826239.0
16	14	26	53	938	189.0	1154466.0	74376.0	-5825923.0
16	14	26	53	938	190.0	811916.0	72557.0	-5825222.0
16	14	26	53	939	191.0	490312.0	70948.0	-5824825.0
16	14	26	53	939	192.0	246774.0	68960.0	-5826002.0
16	14	26	53	982	193.0	90792.0	66699.0	-5826270.0
16	14	26	53	982	194.0	23223.0	65014.0	-5825598.0
16	14	26	53	982	195.0	50639.0	62746.0	-5824993.0
16	14	26	53	983	196.0	181377.0	60264.0	-5825488.0
16	14	26	53	983	197.0	384541.0	58231.0	-5826553.0
16	14	26	53	983	199.0	764789.0	55175.0	-5825522.0
16	14	26	53	984	200.0	859666.0	53179.0	-5824942.0
16	14	26	53	984	201.0	841412.0	51126.0	-5825233.0
16	14	26	53	984	202.0	689015.0	49251.0	-5825623.0
16	14	26	53	985	203.0	450688.0	47293.0	-5825121.0
16	14	26	53	985	204.0	194477.0	45232.0	-5825190.0
16	14	26	53	985	205.0	-21986.0	43721.0	-5826835.0
16	14	26	53	985	206.0	-154442.0	41464.0	-5826549.0
16	14	26	53	986	207.0	-181923.0	40497.0	-5825942.0
16	14	26	53	986	208.0	-129866.0	39639.0	-5825624.0
16	14	26	53	986	209.0	-50141.0	37149.0	-5826897.0
16	14	26	53	987	210.0	14114.0	34917.0	-5826866.0
16	14	26	53	987	211.0	52511.0	32586.0	-5826255.0
16	14	26	53	987	212.0	66830.0	30904.0	-5825616.0
16	14	26	53	987	213.0	68702.0	28778.0	-5825479.0
16	14	26	53	988	214.0	56218.0	26576.0	-5826604.0
16	14	26	53	988	215.0	3228.0	24283.0	-5826384.0
16	14	26	53	988	216.0	-69729.0	22177.0	-5825742.0
16	14	26	53	989	217.0	-165019.0	20026.0	-5825247.0
16	14	26	53	989	218.0	-272456.0	18972.0	-5826116.0
16	14	26	53	989	219.0	-382406.0	20614.0	-5826323.0
16	14	26	54	43	222.0	-521236.0	29570.0	-5825766.0
16	14	26	54	43	223.0	-479612.0	29100.0	-5826768.0
16	14	26	54	101	224.0	-403719.0	28914.0	-5826271.0
16	14	26	54	159	225.0	-300128.0	28188.0	-5825669.0
16	14	26	54	160	226.0	-195392.0	26983.0	-5825693.0
16	14	26	54	160	227.0	-111402.0	25243.0	-5826875.0
16	14	26	54	160	228.0	-36969.0	23983.0	-5826636.0
16	14	26	54	160	229.0	16623.0	22761.0	-5826009.0
16	14	26	54	161	230.0	53856.0	20083.0	-5825471.0
16	14	26	54	161	231.0	78834.0	17316.0	-5825359.0
16	14	26	54	161	232.0	99772.0	14906.0	-5826203.0
16	14	26	54	162	233.0	113448.0	12929.0	-5825793.0
16	14	26	54	162	234.0	143149.0	9901.0	-5825394.0
16	14	26	54	162	235.0	198473.0	6955.0	-5826639.0
16	14	26	54	162	236.0	262286.0	4548.0	-5826900.0
16	14	26	54	163	237.0	306965.0	2259.0	-5826269.0
16	14	26	54	163	244.0	366061.0	-9441.0	-5826551.0
16	14	26	54	163	10.0	-471879.0	-35831.0	-5826897.0
16	14	26	54	164	33.0	-90605.0	-33295.0	-5826969.0
16	14	26	54	164	34.0	41366.0	-33901.0	-5826430.0
16	14	26	54	164	35.0	161303.0	-35058.0	-5825768.0
16	14	26	54	164	36.0	254964.0	-35627.0	-5826057.0
16	14	26	54	165	37.0	351206.0	-35727.0	-5826992.0
16	14	26	54	165	38.0	454231.0	-35846.0	-5826569.0
16	14	26	54	165	39.0	548181.0	-36074.0	-5825912.0
16	14	26	54	166	40.0	641891.0	-35709.0	-5825889.0
16	14	26	54	166	41.0	743493.0	-34752.0	-5827117.0
16	14	26	54	166	42.0	825637.0	-33719.0	-5826864.0
16	14	26	54	166	43.0	877612.0	-33047.0	-5826282.0
16	14	26	54	167	44.0	887439.0	-32684.0	-5825922.0
16	14	26	54	167	45.0	873574.0	-32032.0	-5826999.0
16	14	26	54	167	46.0	849888.0	-31094.0	-5827172.0
16	14	26	54	167	47.0	800346.0	-31144.0	-5826532.0
16	14	26	54	168	48.0	737576.0	-31467.0	-5825952.0
16	14	26	54	168	49.0	671669.0	-30807.0	-5826565.0
16	14	26	54	168	50.0	585564.0	-30507.0	-5827246.0
16	14	26	54	168	51.0	492848.0	-30842.0	-5826666.0
16	14	26	54	169	52.0	399047.0	-30531.0	-5826018.0
16	14	26	54	169	53.0	309688.0	-29806.0	-5825866.0
16	14	26	54	169	55.0	170861.0	-28782.0	-5827149.0
16	14	26	54	170	56.0	159635.0	-28991.0	-5826522.0
16	14	26	54	170	57.0	159608.0	-30163.0	-5825932.0
16	14	26	54	170	58.0	164049.0	-30003.0	-5825922.0
16	14	26	54	170	59.0	166954.0	-29476.0	-5826789.0
16	14	26	54	171	60.0	164279.0	-29557.0	-5826367.0
16	14	26	54	171	61.0	140235.0	-29195.0	-5825920.0
16	14	26	54	218	62.0	99850.0	-28722.0	-5826987.0
16	14	26	54	218	63.0	46763.0	-28276.0	-5827303.0
16	14	26	54	219	64.0	-6198.0	-26669.0	-5826697.0
16	14	26	54	219	65.0	-48727.0	-25131.0	-5826077.0
16	14	26	54	219	66.0	-73791.0	-24142.0	-5825891.0
16	14	26	54	219	67.0	-83965.0	-23534.0	-5827210.0
16	14	26	54	220	68.0	-63086.0	-23273.0	-5827071.0
16	14	26	54	220	69.0	-37179.0	-23101.0	-5826472.0
16	14	26	54	220	70.0	-34939.0	-23084.0	-5825860.0
16	14	26	54	221	71.0	-31391.0	-22698.0	-5826572.0
16	14	26	54	221	72.0	-7886.0	-22722.0	-5827100.0
16	14	26	54	221	73.0	47978.0	-22811.0	-5826565.0
16	14	26	54	222	74.0	181243.0	-22482.0	-5825914.0
16	14	26	54	222	75.0	403624.0	-22574.0	-5826092.0
16	14	26	54	222	76.0	578124.0	-22980.0	-5827294.0
16	14	26	54	222	78.0	798161.0	-23117.0	-5826361.0
16	14	26	54	223	79.0	914347.0	-23849.0	-5826100.0
16	14	26	54	223	80.0	972354.0	-24196.0	-5827362.0
16	14	26	54	223	81.0	942161.0	-24317.0	-5827547.0
16	14	26	54	224	82.0	798714.0	-23880.0	-5826831.0
16	14	26	54	224	83.0	536742.0	-23701.0	-5826214.0
16	14	26	54	273	84.0	237469.0	-23457.0	-5825926.0
16	14	26	54	273	85.0	-28921.0	-23430.0	-5827204.0
16	14	26	54	274	86.0	-263981.0	-22133.0	-5826989.0
16	14	26	54	274	87.0	-449011.0	-21696.0	-5826417.0
16	14	26	54	274	88.0	-559657.0	-22426.0	-5825864.0
16	14	26	54	274	89.0	-605436.0	-22219.0	-5826841.0
16	14	26	54	275	90.0	-601966.0	-21726.0	-5827152.0
16	14	26	54	275	91.0	-547868.0	-21305.0	-5826596.0
16	14	26	54	275	92.0	-456694.0	-21186.0	-5825977.0
16	14	26	54	276	93.0	-348534.0	-21056.0	-5826697.0
16	14	26	54	276	94.0	-235752.0	-20662.0	-5827409.0
16	14	26	54	276	95.0	-129578.0	-21136.0	-5826937.0
16	14	26	54	276	96.0	-71679.0	-21071.0	-5826242.0
16	14	26	54	277	97.0	-71186.0	-20314.0	-5826309.0
16	14	26	54	277	98.0	-118232.0	-20201.0	-5827562.0
16	14	26	54	277	100.0	-197449.0	-19228.0	-5826639.0
16	14	26	54	278	101.0	-228104.0	-19099.0	-5826187.0
16	14	26	54	278	102.0	-225421.0	-19468.0	-5827067.0
16	14	26	54	278	103.0	-160717.0	-19357.0	-5827491.0
16	14	26	54	278	104.0	-68749.0	-18983.0	-5826877.0
16	14	26	54	279	105.0	41742.0	-18609.0	-5826316.0
16	14	26	54	279	106.0	172523.0	-18165.0	-5826107.0
16	14	26	54	329	107.0	293194.0	-18096.0	-5827440.0
16	14	26	54	330	108.0	383761.0	-18094.0	-5827304.0
16	14	26	54	330	109.0	432907.0	-16806.0	-5826719.0
16	14	26	54	330	110.0	440585.0	-16835.0	-5826411.0
16	14	26	54	331	111.0	404499.0	-16247.0	-5827631.0
16	14	26	54	331	112.0	341991.0	-15459.0	-5827548.0
16	14	26	54	332	113.0	257893.0	-15179.0	-5826960.0
16	14	26	54	332	114.0	160874.0	-14628.0	-5826315.0
16	14	26	54	332	115.0	59263.0	-14659.0	-5826185.0
16	14	26	54	332	116.0	-36250.0	-14357.0	-5827441.0
16	14	26	54	333	117.0	-107222.0	-13724.0	-5827256.0
16	14	26	54	333	118.0	-141278.0	-13561.0	-5826597.0
16	14	26	54	333	119.0	-162327.0	-13823.0	-5826226.0
16	14	26	54	333	120.0	-192071.0	-13432.0	-5827591.0
16	14	26	54	334	121.0	-189001.0	-12944.0	-5827917.0
16	14	26	54	334	123.0	57332.0	-13142.0	-5826769.0
16	14	26	54	334	124.0	300477.0	-13833.0	-5827209.0
16	14	26	54	335	125.0	595847.0	-13671.0	-5828164.0
16	14	26	54	335	126.0	928721.0	-13028.0	-5827687.0
16	14	26	54	335	127.0	1282325.0	-12734.0	-5827109.0
16	14	26	54	335	128.0	1604926.0	-12676.0	-5827179.0
16	14	26	54	388	129.0	1847128.0	-12231.0	-5828562.0
16	14	26	54	388	130.0	1985821.0	-11362.0	-5828313.0
16	14	26	54	388	131.0	2001733.0	-9672.0	-5827643.0
16	14	26	54	389	132.0	1897134.0	-9141.0	-5827060.0
16	14	26	54	389	133.0	1674825.0	-8506.0	-5826923.0
16	14	26	54	389	134.0	1336464.0	-7746.0	-5827494.0
16	14	26	54	389	135.0	925477.0	-7232.0	-5827003.0
16	14	26	54	390	136.0	513203.0	-6396.0	-5826376.0
16	14	26	54	390	137.0	164100.0	-6553.0	-5826634.0
16	14	26	54	390	138.0	-119434.0	-6629.0	-5827198.0
16	14	26	54	391	139.0	-354834.0	-6329.0	-5826697.0
16	14	26	54	391	140.0	-541779.0	-6292.0	-5826751.0
16	14	26	54	391	141.0	-642769.0	-6449.0	-5827726.0
16	14	26	54	392	142.0	-612410.0	-6942.0	-5827254.0
16	14	26	54	392	143.0	-415805.0	-7778.0	-5826682.0
16	14	26	54	392	168.0	-44974.0	-1622.0	-5827721.0
16	14	26	54	393	169.0	-105700.0	-2403.0	-5827269.0
16	14	26	54	393	170.0	-153971.0	-2001.0	-5826697.0
16	14	26	54	393	171.0	-191240.0	-1232.0	-5826819.0
16	14	26	54	393	172.0	-214104.0	-780.0	-5827566.0
16	14	26	54	394	173.0	-202311.0	-877.0	-5827122.0
16	14	26	54	441	174.0	-141664.0	-448.0	-5826506.0
16	14	26	54	441	175.0	-41702.0	935.0	-5826504.0
16	14	26	54	442	176.0	113189.0	2588.0	-5827744.0
16	14	26	54	442	177.0	322552.0	2980.0	-5827491.0
16	14	26	54	442	178.0	544671.0	3159.0	-5826885.0
16	14	26	54	443	179.0	736029.0	3797.0	-5826357.0
16	14	26	54	443	180.0	871639.0	4221.0	-5827406.0
16	14	26	54	443	181.0	943059.0	5204.0	-5827825.0
16	14	26	54	444	182.0	966110.0	5340.0	-5827249.0
16	14	26	54	444	183.0	976953.0	5624.0	-5826596.0
16	14	26	54	444	184.0	1001772.0	6490.0	-5826815.0
16	14	26	54	444	185.0	1049034.0	7034.0	-5828166.0
16	14	26	54	445	186.0	1069809.0	7281.0	-5827885.0
16	14	26	54	483	187.0	1045726.0	6731.0	-5827238.0
16	14	26	54	483	188.0	1014388.0	6856.0	-5827284.0
16	14	26	54	484	190.0	890311.0	7828.0	-5828343.0
16	14	26	54	484	198.0	-202469.0	11361.0	-5827863.0
16	14	26	54	485	199.0	-320184.0	10559.0	-5827371.0
16	14	26	54	485	200.0	-404597.0	10544.0	-5826772.0
16	14	26	54	485	201.0	-448518.0	10864.0	-5826831.0
16	14	26	54	486	202.0	-440937.0	11281.0	-5827544.0
16	14	26	54	486	203.0	-407024.0	11358.0	-5827121.0
16	14	26	54	487	204.0	-380364.0	12360.0	-5826487.0
16	14	26	54	487	205.0	-363212.0	14656.0	-5826692.0
16	14	26	54	487	206.0	-346676.0	15968.0	-5827830.0
16	14	26	54	488	207.0	-329452.0	16799.0	-5827454.0
16	14	26	54	488	208.0	-320397.0	19319.0	-5826820.0
16	14	26	54	488	209.0	-320812.0	21223.0	-5826485.0
16	14	26	54	488	210.0	-336540.0	22939.0	-5827741.0
16	14	26	54	489	211.0	-372992.0	24965.0	-5827816.0
16	14	26	54	489	212.0	-426837.0	27460.0	-5827222.0
16	14	26	54	489	213.0	-473579.0	29778.0	-5826554.0
16	14	26	54	490	214.0	-501666.0	30817.0	-5826574.0
16	14	26	54	490	215.0	-507823.0	33283.0	-5827664.0
16	14	26	54	490	216.0	-481206.0	36140.0	-5827406.0
16	14	26	54	490	217.0	-420605.0	38992.0	-5826727.0
16	14	26	54	491	218.0	-330954.0	41281.0	-5826425.0
16	14	26	54	491	219.0	-221988.0	43910.0	-5827546.0
16	14	26	54	492	220.0	-103851.0	46540.0	-5827625.0
16	14	26	54	526	221.0	1908.0	47994.0	-5826964.0
16	14	26	54	527	222.0	84171.0	49669.0	-5826400.0
16	14	26	54	527	223.0	155213.0	53208.0	-5826211.0
16	14	26	54	527	224.0	209974.0	57171.0	-5826826.0
16	14	26	54	528	225.0	234074.0	60323.0	-5826402.0
16	14	26	54	528	226.0	225068.0	66249.0	-5825804.0
16	14	26	54	528	227.0	202005.0	73916.0	-5825722.0
16	14	26	54	528	228.0	180090.0	79929.0	-5826402.0
16	14	26	54	529	229.0	162568.0	83769.0	-5825937.0
16	14	26	54	529	230.0	153323.0	87731.0	-5825663.0
16	14	26	54	529	231.0	142630.0	92299.0	-5826827.0
16	14	26	54	530	232.0	136535.0	95963.0	-5826827.0
16	14	26	54	530	233.0	136099.0	98326.0	-5826162.0
16	14	26	54	530	234.0	128066.0	100794.0	-5825591.0
16	14	26	54	530	235.0	108565.0	102376.0	-5825831.0
16	14	26	54	531	236.0	89649.0	103270.0	-5826519.0
16	14	26	54	531	237.0	70720.0	103287.0	-5826047.0
16	14	26	54	531	238.0	45367.0	104035.0	-5825516.0
16	14	26	54	532	239.0	21028.0	105800.0	-5826489.0
16	14	26	54	532	240.0	-5854.0	106036.0	-5826920.0
16	14	26	54	532	241.0	-43558.0	105286.0	-5826333.0
16	14	26	54	579	242.0	-76756.0	104763.0	-5825701.0
16	14	26	54	580	243.0	-96512.0	104016.0	-5825371.0
16	14	26	54	580	244.0	-116047.0	102073.0	-5826508.0
16	14	26	54	580	245.0	-121206.0	101059.0	-5826407.0
16	14	26	54	581	246.0	-101767.0	101251.0	-5825822.0
16	14	26	54	581	247.0	-51542.0	100559.0	-5825250.0
16	14	26	54	582	248.0	23525.0	98682.0	-5826157.0
16	14	26	54	582	249.0	98213.0	96958.0	-5826667.0
16	14	26	54	582	250.0	156720.0	95569.0	-5826131.0
16	14	26	54	583	251.0	186602.0	93418.0	-5825543.0
16	14	26	54	583	252.0	169378.0	91119.0	-5826282.0
16	14	26	54	583	253.0	49836.0	89930.0	-5827066.0
16	14	26	54	583	254.0	-142112.0	89279.0	-5826551.0
16	14	26	54	583	255.0	-227499.0	87093.0	-5825886.0
16	14	26	54	584	0.0	-7089.0	84259.0	-5825810.0
16	14	26	54	584	1.0	465291.0	82360.0	-5827324.0
16	14	26	54	584	2.0	949917.0	80635.0	-5827367.0
16	14	26	54	584	3.0	1272318.0	77681.0	-5826699.0
16	14	26	54	585	4.0	1278449.0	75199.0	-5826220.0
16	14	26	54	585	5.0	1024666.0	74033.0	-5826671.0
16	14	26	54	585	6.0	701704.0	72629.0	-5827508.0
16	14	26	54	585	7.0	398489.0	70434.0	-5826859.0
16	14	26	54	586	8.0	133398.0	68157.0	-5826281.0
16	14	26	54	586	9.0	-81712.0	65188.0	-5825722.0
16	14	26	54	586	10.0	-224637.0	61997.0	-5826681.0
16	14	26	54	639	11.0	-288667.0	58864.0	-5827044.0
16	14	26	54	639	12.0	-282581.0	57136.0	-5826484.0
16	14	26	54	640	13.0	-258546.0	55562.0	-5825940.0
16	14	26	54	640	14.0	-247924.0	53328.0	-5827043.0
16	14	26	54	640	15.0	-247963.0	51139.0	-5827309.0
16	14	26	54	640	16.0	-256083.0	48778.0	-5826772.0
16	14	26	54	641	17.0	-270251.0	46762.0	-5826127.0
16	14	26	54	641	18.0	-281339.0	43606.0	-5826432.0
16	14	26	54	641	19.0	-289975.0	41445.0	-5827516.0
16	14	26	54	642	20.0	-305331.0	39800.0	-5827171.0
16	14	26	54	642	21.0	-306185.0	38172.0	-5826510.0
16	14	26	54	642	22.0	-286421.0	35973.0	-5826083.0
16	14	26	54	643	23.0	-254112.0	33923.0	-5827029.0
16	14	26	54	643	24.0	-226444.0	31238.0	-5827536.0
16	14	26	54	643	25.0	-175856.0	27962.0	-5826889.0
16	14	26	54	643	26.0	-86827.0	25045.0	-5826377.0
16	14	26	54	644	27.0	-2587.0	23516.0	-5826959.0
16	14	26	54	644	28.0	47789.0	22744.0	-5827926.0
16	14	26	54	644	29.0	49761.0	20653.0	-5827328.0
16	14	26	54	645	30.0	68505.0	18449.0	-5826772.0
16	14	26	54	645	31.0	141764.0	16430.0	-5826241.0
16	14	26	54	645	32.0	245998.0	14003.0	-5826804.0
16	14	26	54	645	33.0	316378.0	10581.0	-5826851.0
16	14	26	54	645	34.0	292596.0	8015.0	-5826314.0
16	14	26	54	646	35.0	207759.0	6411.0	-5826062.0
16	14	26	54	646	36.0	133489.0	4627.0	-5827497.0
16	14	26	54	646	37.0	131734.0	2576.0	-5827377.0
16	14	26	54	647	38.0	208156.0	391.0	-5826826.0
16	14	26	54	647	39.0	317988.0	-1864.0	-5826184.0
16	14	26	54	647	40.0	415268.0	-4772.0	-5826567.0
16	14	26	54	647	41.0	472735.0	-8172.0	-5827624.0
16	14	26	54	648	42.0	481329.0	-10327.0	-5827205.0
16	14	26	54	648	43.0	453833.0	-11562.0	-5826586.0
16	14	26	54	648	44.0	403353.0	-12966.0	-5827197.0
16	14	26	54	648	45.0	338674.0	-15077.0	-5828039.0
16	14	26	54	649	46.0	286036.0	-16701.0	-5827545.0
16	14	26	54	693	47.0	243873.0	-18124.0	-5826876.0
16	14	26	54	694	48.0	209151.0	-20869.0	-5826546.0
16	14	26	54	694	49.0	189024.0	-22442.0	-5827774.0
16	14	26	54	694	50.0	171998.0	-22530.0	-5828067.0
16	14	26	54	695	51.0	145803.0	-23422.0	-5827379.0
16	14	26	54	695	52.0	113979.0	-25311.0	-5826772.0
16	14	26	54	696	53.0	82565.0	-27007.0	-5827064.0
16	14	26	54	696	54.0	46991.0	-28297.0	-5828084.0
16	14	26	54	696	55.0	17649.0	-30460.0	-5827627.0
16	14	26	54	697	56.0	3971.0	-31957.0	-5827054.0
16	14	26	54	697	57.0	10226.0	-32448.0	-5826668.0
16	14	26	54	697	58.0	20996.0	-32539.0	-5827697.0
16	14	26	54	697	59.0	30998.0	-33584.0	-5827857.0
16	14	26	54	698	60.0	40338.0	-34957.0	-5827250.0
16	14	26	54	698	61.0	38809.0	-35665.0	-5826769.0
16	14	26	54	698	62.0	22314.0	-36427.0	-5827747.0
16	14	26	54	698	63.0	2944.0	-38287.0	-5828186.0
16	14	26	54	699	64.0	3740.0	-39048.0	-5827575.0
16	14	26	54	699	65.0	20664.0	-38866.0	-5827006.0
16	14	26	54	699	66.0	40260.0	-39402.0	-5827526.0
16	14	26	54	700	67.0	63314.0	-39478.0	-5828642.0
16	14	26	54	759	68.0	87948.0	-38934.0	-5828109.0
16	14	26	54	759	69.0	108614.0	-39230.0	-5827512.0
16	14	26	54	759	70.0	113806.0	-40131.0	-5826858.0
16	14	26	54	760	71.0	105249.0	-40837.0	-5827302.0
16	14	26	54	760	72.0	98274.0	-40186.0	-5828172.0
16	14	26	54	760	73.0	115274.0	-38956.0	-5827696.0
16	14	26	54	761	74.0	129103.0	-38964.0	-5827051.0
16	14	26	54	761	75.0	118383.0	-39199.0	-5827522.0
16	14	26	54	761	76.0	83931.0	-39211.0	-5828405.0
16	14	26	54	761	77.0	48371.0	-39677.0	-5827959.0
16	14	26	54	762	78.0	21015.0	-40104.0	-5827317.0
16	14	26	54	762	79.0	8412.0	-40064.0	-5827074.0
16	14	26	54	762	80.0	1086.0	-39064.0	-5828552.0
16	14	26	54	763	81.0	152.0	-38180.0	-5828814.0
16	14	26	54	763	82.0	9565.0	-38352.0	-5828107.0
16	14	26	54	763	83.0	32475.0	-38767.0	-5827506.0
16	14	26	54	764	84.0	61259.0	-39076.0	-5827336.0
16	14	26	54	764	85.0	93672.0	-40436.0	-5828670.0
16	14	26	54	764	86.0	151727.0	-41118.0	-5828440.0
16	14	26	54	764	87.0	239571.0	-41112.0	-5827896.0
16	14	26	54	765	88.0	325236.0	-40715.0	-5827242.0
16	14	26	54	765	89.0	355482.0	-39614.0	-5827743.0
16	14	26	54	765	90.0	306201.0	-39128.0	-5828693.0
16	14	26	54	766	91.0	212611.0	-38616.0	-5828270.0
16	14	26	54	766	92.0	128691.0	-38516.0	-5827609.0
16	14	26	54	766	93.0	88930.0	-39286.0	-5828075.0
16	14	26	54	766	94.0	111148.0	-38467.0	-5829216.0
16	14	26	54	767	95.0	188089.0	-36491.0	-5828857.0
16	14	26	54	767	96.0	278025.0	-35771.0	-5828189.0
16	14	26	54	767	97.0	353064.0	-35084.0	-5827708.0
16	14	26	54	768	98.0	401993.0	-34297.0	-5828456.0
16	14	26	54	768	99.0	429911.0	-33860.0	-5828979.0
16	14	26	54	768	100.0	432468.0	-34147.0	-5828367.0
16	14	26	54	769	101.0	400892.0	-34323.0	-5827793.0
16	14	26	54	769	102.0	346253.0	-33572.0	-5827918.0
16	14	26	54	769	103.0	281049.0	-32173.0	-5828932.0
16	14	26	54	770	104.0	209897.0	-31237.0	-5828454.0
16	14	26	54	770	105.0	139248.0	-30572.0	-5827812.0
16	14	26	54	770	106.0	81678.0	-30185.0	-5827572.0
16	14	26	54	771	107.0	37189.0	-29607.0	-5828989.0
16	14	26	54	826	108.0	-5641.0	-30047.0	-5829031.0
16	14	26	54	826	109.0	-41918.0	-29077.0	-5828437.0
16	14	26	54	827	110.0	-72987.0	-27136.0	-5827830.0
16	14	26	54	827	111.0	-105566.0	-26612.0	-5828272.0
16	14	26	54	827	112.0	-128531.0	-26217.0	-5829275.0
16	14	26	54	828	113.0	-140878.0	-26156.0	-5828766.0
16	14	26	54	828	114.0	-140889.0	-26181.0	-5828160.0
16	14	26	54	828	115.0	-126803.0	-26532.0	-5827652.0
16	14	26	54	828	116.0	-108934.0	-26489.0	-5828773.0
16	14	26	54	829	117.0	-106363.0	-25229.0	-5829089.0
16	14	26	54	829	118.0	-119391.0	-23421.0	-5828516.0
16	14	26	54	829	119.0	-143256.0	-22861.0	-5827894.0
16	14	26	54	830	120.0	-167142.0	-22420.0	-5828557.0
16	14	26	54	830	121.0	-175834.0	-22384.0	-5829483.0
16	14	26	54	830	122.0	-152481.0	-21959.0	-5829017.0
16	14	26	54	830	123.0	-88163.0	-22696.0	-5828396.0
16	14	26	54	831	124.0	3831.0	-22363.0	-5828662.0
16	14	26	54	831	125.0	85923.0	-20840.0	-5829764.0
16	14	26	54	831	126.0	140788.0	-20486.0	-5829404.0
16	14	26	54	832	127.0	177331.0	-19857.0	-5828757.0
16	14	26	54	832	128.0	209751.0	-19399.0	-5828274.0
16	14	26	54	832	129.0	240738.0	-19446.0	-5828931.0
16	14	26	54	832	130.0	260240.0	-20413.0	-5829741.0
16	14	26	54	833	131.0	260017.0	-20752.0	-5829080.0
16	14	26	54	833	132.0	239991.0	-20098.0	-5828506.0
16	14	26	54	833	133.0	209109.0	-18354.0	-5828111.0
16	14	26	54	834	134.0	176916.0	-18239.0	-5828840.0
16	14	26	54	834	135.0	162453.0	-18652.0	-5828582.0
16	14	26	54	886	136.0	156556.0	-18958.0	-5828016.0
16	14	26	54	886	137.0	156436.0	-19657.0	-5827829.0
16	14	26	54	887	138.0	157568.0	-20001.0	-5828776.0
16	14	26	54	887	139.0	152668.0	-19631.0	-5828486.0
16	14	26	54	887	140.0	148645.0	-18982.0	-5827903.0
16	14	26	54	887	141.0	156526.0	-19342.0	-5828196.0
16	14	26	54	888	142.0	188409.0	-21028.0	-5828772.0
16	14	26	54	888	143.0	220800.0	-21910.0	-5828259.0
16	14	26	54	888	144.0	246433.0	-22521.0	-5827846.0
16	14	26	54	889	145.0	283413.0	-23667.0	-5829025.0
16	14	26	54	889	146.0	317204.0	-23270.0	-5829189.0
16	14	26	54	889	147.0	311977.0	-22901.0	-5828544.0
16	14	26	54	889	148.0	260789.0	-22524.0	-5827905.0
16	14	26	54	890	149.0	195954.0	-22611.0	-5827574.0
16	14	26	54	890	150.0	131429.0	-22373.0	-5828776.0
16	14	26	54	890	151.0	73271.0	-21937.0	-5828760.0
16	14	26	54	891	152.0	28157.0	-22541.0	-5828139.0
16	14	26	54	891	153.0	-1764.0	-23082.0	-5827681.0
16	14	26	54	891	154.0	-19082.0	-22955.0	-5828848.0
16	14	26	54	892	155.0	-9254.0	-22520.0	-5829236.0
16	14	26	54	892	156.0	21113.0	-22331.0	-5828625.0
16	14	26	54	892	157.0	53515.0	-22072.0	-5827999.0
16	14	26	54	893	158.0	78641.0	-20604.0	-5828231.0
16	14	26	54	893	159.0	94953.0	-20279.0	-5829361.0
16	14	26	54	893	160.0	99316.0	-20984.0	-5828958.0
16	14	26	54	893	161.0	92772.0	-20241.0	-5828317.0
16	14	26	54	894	162.0	83540.0	-19507.0	-5828448.0
16	14	26	54	951	163.0	68819.0	-19152.0	-5829584.0
16	14	26	54	951	164.0	54512.0	-18996.0	-5829272.0
16	14	26	54	952	165.0	39713.0	-18287.0	-5828599.0
16	14	26	54	952	166.0	19164.0	-17824.0	-5828014.0
16	14	26	54	952	167.0	-6696.0	-17641.0	-5827768.0
16	14	26	54	952	168.0	-25349.0	-17836.0	-5828546.0
16	14	26	54	953	169.0	-37001.0	-17492.0	-5828163.0
16	14	26	54	953	170.0	-32857.0	-17074.0	-5827742.0
16	14	26	54	953	171.0	-22361.0	-15746.0	-5828524.0
16	14	26	54	953	172.0	-2001.0	-14961.0	-5828680.0
16	14	26	54	954	173.0	14102.0	-14814.0	-5827999.0
16	14	26	54	954	174.0	26917.0	-14888.0	-5827401.0
16	14	26	54	954	175.0	51387.0	-15571.0	-5827786.0
16	14	26	54	954	176.0	102513.0	-15455.0	-5828744.0
16	14	26	54	955	177.0	161469.0	-13579.0	-5828226.0
16	14	26	54	955	178.0	206622.0	-12724.0	-5827647.0
16	14	26	54	955	179.0	227016.0	-12506.0	-5827135.0
16	14	26	54	956	180.0	228685.0	-12589.0	-5828215.0
16	14	26	54	956	181.0	230399.0	-12309.0	-5828445.0
16	14	26	54	956	182.0	240347.0	-12522.0	-5827899.0
16	14	26	54	956	183.0	256671.0	-13044.0	-5827283.0
16	14	26	54	957	184.0	281957.0	-12608.0	-5828008.0
16	14	26	54	957	185.0	320926.0	-10995.0	-5828700.0
16	14	26	54	957	186.0	342835.0	-9917.0	-5828216.0
16	14	26	54	957	187.0	334539.0	-9697.0	-5827592.0
16	14	26	54	958	188.0	301659.0	-10062.0	-5827529.0
16	14	26	54	958	189.0	242166.0	-10367.0	-5828926.0
16	14	26	54	958	190.0	166617.0	-11771.0	-5828929.0
16	14	26	55	15	191.0	95630.0	-13201.0	-5828240.0
16	14	26	55	16	192.0	26473.0	-12654.0	-5827831.0
16	14	26	55	16	193.0	-84848.0	-11962.0	-5828816.0
16	14	26	55	16	194.0	-275565.0	-12195.0	-5829176.0
16	14	26	55	17	195.0	-500676.0	-12028.0	-5828442.0
16	14	26	55	17	196.0	-656691.0	-11914.0	-5827860.0
16	14	26	55	17	197.0	-701580.0	-11547.0	-5827344.0
16	14	26	55	18	198.0	-644025.0	-11705.0	-5828153.0
16	14	26	55	18	199.0	-496904.0	-11537.0	-5828185.0
16	14	26	55	18	200.0	-274905.0	-11496.0	-5827646.0
16	14	26	55	19	201.0	-4905.0	-11215.0	-5827284.0
16	14	26	55	19	202.0	265031.0	-10341.0	-5828098.0
16	14	26	55	19	203.0	485931.0	-9554.0	-5827891.0
16	14	26	55	19	204.0	638104.0	-8912.0	-5827489.0
16	14	26	55	19	205.0	712794.0	-9578.0	-5828615.0
16	14	26	55	20	206.0	722265.0	-9159.0	-5829021.0
16	14	26	55	20	207.0	695949.0	-8021.0	-5828367.0
16	14	26	55	20	208.0	609516.0	-3716.0	-5827769.0
16	14	26	55	20	209.0	431846.0	2478.0	-5827771.0
16	14	26	55	21	210.0	177624.0	7697.0	-5828877.0
16	14	26	55	21	211.0	-99701.0	13369.0	-5828396.0
16	14	26	55	21	212.0	-377178.0	16201.0	-5827793.0
16	14	26	55	22	213.0	-602787.0	18801.0	-5827311.0
16	14	26	55	22	214.0	-732587.0	20685.0	-5828688.0
16	14	26	55	22	215.0	-719882.0	21721.0	-5828956.0
16	14	26	55	22	216.0	-530182.0	22424.0	-5828413.0
16	14	26	55	23	217.0	-188916.0	23066.0	-5827732.0
16	14	26	55	23	218.0	211404.0	23923.0	-5827594.0
16	14	26	55	23	219.0	560845.0	23958.0	-5828706.0
16	14	26	55	23	220.0	802655.0	22763.0	-5828636.0
16	14	26	55	24	221.0	899480.0	21990.0	-5827967.0
16	14	26	55	24	222.0	840941.0	20685.0	-5828075.0
16	14	26	55	24	223.0	651730.0	20561.0	-5829063.0
16	14	26	55	24	224.0	390103.0	21616.0	-5828717.0
16	14	26	55	25	225.0	116500.0	21342.0	-5828015.0
16	14	26	55	25	226.0	-116670.0	20634.0	-5827479.0
16	14	26	55	25	227.0	-263064.0	19586.0	-5828074.0
16	14	26	55	26	228.0	-308444.0	18286.0	-5829156.0
16	14	26	55	26	229.0	-272703.0	19148.0	-5828572.0
16	14	26	55	26	230.0	-189673.0	19171.0	-5827994.0
16	14	26	55	27	231.0	-108274.0	18883.0	-5827505.0
16	14	26	55	27	232.0	-66442.0	18114.0	-5828322.0
16	14	26	55	27	233.0	-69244.0	17760.0	-5828334.0
16	14	26	55	27	234.0	-102777.0	17416.0	-5827827.0
16	14	26	55	28	235.0	-134791.0	15930.0	-5828406.0
16	14	26	55	83	236.0	-135684.0	14629.0	-5829185.0
16	14	26	55	84	237.0	-103467.0	13973.0	-5828571.0
16	14	26	55	84	238.0	-40705.0	14525.0	-5828052.0
16	14	26	55	84	239.0	36443.0	14025.0	-5827594.0
16	14	26	55	85	240.0	107866.0	13133.0	-5828284.0
16	14	26	55	85	241.0	153283.0	12526.0	-5828120.0
16	14	26	55	85	242.0	173188.0	11376.0	-5827577.0
16	14	26	55	86	243.0	170909.0	9869.0	-5827866.0
16	14	26	55	86	244.0	155210.0	9871.0	-5829032.0
16	14	26	55	86	245.0	145355.0	10335.0	-5828518.0
16	14	26	55	87	246.0	137668.0	9723.0	-5827947.0
16	14	26	55	87	247.0	136703.0	9215.0	-5827339.0
16	14	26	55	87	248.0	165320.0	8608.0	-5828111.0
16	14	26	55	88	249.0	219088.0	7287.0	-5828671.0
16	14	26	55	88	250.0	277353.0	5919.0	-5828167.0
16	14	26	55	88	251.0	326036.0	5604.0	-5827596.0
16	14	26	55	88	252.0	351008.0	5997.0	-5828607.0
16	14	26	55	89	253.0	351752.0	7056.0	-5829179.0
16	14	26	55	89	254.0	334214.0	7601.0	-5828647.0
16	14	26	55	89	255.0	312777.0	7099.0	-5827959.0
16	14	26	55	89	0.0	296951.0	6429.0	-5827760.0
16	14	26	55	90	1.0	300031.0	5759.0	-5828917.0
16	14	26	55	90	2.0	306008.0	4879.0	-5828940.0
16	14	26	55	90	3.0	293217.0	5228.0	-5828217.0
16	14	26	55	90	4.0	276233.0	6839.0	-5827704.0
16	14	26	55	91	5.0	249433.0	6828.0	-5828505.0
16	14	26	55	91	6.0	214886.0	6806.0	-5829234.0
16	14	26	55	92	7.0	197863.0	6474.0	-5828592.0
16	14	26	55	92	8.0	182045.0	6073.0	-5827999.0
16	14	26	55	148	9.0	165122.0	4973.0	-5828011.0
16	14	26	55	149	10.0	155496.0	5146.0	-5828822.0
16	14	26	55	149	11.0	149593.0	6176.0	-5828372.0
16	14	26	55	149	12.0	157180.0	6257.0	-5827797.0
16	14	26	55	150	13.0	196889.0	6148.0	-5827681.0
16	14	26	55	150	14.0	258996.0	6674.0	-5829076.0
16	14	26	55	150	15.0	302692.0	6818.0	-5828892.0
16	14	26	55	150	16.0	303468.0	6381.0	-5828293.0
16	14	26	55	151	17.0	271074.0	6102.0	-5827682.0
16	14	26	55	151	18.0	240051.0	6611.0	-5828022.0
16	14	26	55	151	19.0	204929.0	8489.0	-5828272.0
16	14	26	55	152	20.0	159276.0	9469.0	-5827704.0
16	14	26	55	152	21.0	115184.0	10363.0	-5827119.0
16	14	26	55	152	22.0	82669.0	11599.0	-5827706.0
16	14	26	55	152	23.0	53882.0	12835.0	-5828001.0
16	14	26	55	153	24.0	25404.0	12531.0	-5827485.0
16	14	26	55	153	25.0	-2101.0	13240.0	-5827458.0
16	14	26	55	153	26.0	-30336.0	15564.0	-5828836.0
16	14	26	55	153	27.0	-68779.0	17603.0	-5828539.0
16	14	26	55	154	28.0	-103643.0	18455.0	-5827949.0
16	14	26	55	154	29.0	-111701.0	19407.0	-5827324.0
16	14	26	55	154	30.0	-95804.0	20836.0	-5828038.0
16	14	26	55	154	31.0	-75337.0	21461.0	-5828527.0
16	14	26	55	155	32.0	-50970.0	21926.0	-5828012.0
16	14	26	55	155	33.0	-4342.0	24086.0	-5827362.0
16	14	26	55	155	34.0	65936.0	27149.0	-5827759.0
16	14	26	55	155	35.0	146351.0	29511.0	-5828787.0
16	14	26	55	156	36.0	252243.0	31156.0	-5828374.0
16	14	26	55	156	37.0	369557.0	32995.0	-5827752.0
16	14	26	55	156	38.0	467692.0	35200.0	-5827314.0
16	14	26	55	156	39.0	550494.0	36697.0	-5828392.0
16	14	26	55	157	40.0	618303.0	38327.0	-5828939.0
16	14	26	55	157	41.0	671648.0	41448.0	-5828341.0
16	14	26	55	157	42.0	699081.0	44084.0	-5827762.0
16	14	26	55	158	43.0	666575.0	46303.0	-5827993.0
16	14	26	55	158	44.0	557378.0	48929.0	-5829141.0
16	14	26	55	158	45.0	396191.0	50848.0	-5828706.0
16	14	26	55	159	46.0	241566.0	51891.0	-5828041.0
16	14	26	55	222	47.0	124806.0	52420.0	-5827741.0
16	14	26	55	223	48.0	61469.0	54340.0	-5828827.0
16	14	26	55	223	49.0	36734.0	57629.0	-5828674.0
16	14	26	55	223	50.0	20953.0	59951.0	-5828059.0
16	14	26	55	223	51.0	-31939.0	61888.0	-5827437.0
16	14	26	55	224	52.0	-103619.0	63956.0	-5827293.0
16	14	26	55	224	53.0	-168882.0	64996.0	-5828608.0
16	14	26	55	224	54.0	-231927.0	65306.0	-5828369.0
16	14	26	55	225	55.0	-284041.0	66516.0	-5827741.0
16	14	26	55	225	56.0	-290244.0	68618.0	-5827436.0
16	14	26	55	225	57.0	-259104.0	71483.0	-5828772.0
16	14	26	55	225	58.0	-213782.0	73113.0	-5828746.0
16	14	26	55	226	59.0	-179667.0	74554.0	-5828209.0
16	14	26	55	226	60.0	-159483.0	76042.0	-5827608.0
16	14	26	55	226	61.0	-131036.0	75568.0	-5828170.0
16	14	26	55	227	62.0	-114417.0	75246.0	-5829200.0
16	14	26	55	227	63.0	-121901.0	75780.0	-5828749.0
16	14	26	55	227	64.0	-131351.0	76510.0	-5828068.0
16	14	26	55	227	65.0	-148637.0	76490.0	-5827959.0
16	14	26	55	227	66.0	-178296.0	76808.0	-5828965.0
16	14	26	55	228	67.0	-201009.0	76418.0	-5828769.0
16	14	26	55	228	68.0	-231921.0	75777.0	-5828054.0
16	14	26	55	228	69.0	-320595.0	73939.0	-5827480.0
16	14	26	55	228	70.0	-478045.0	73545.0	-5827782.0
16	14	26	55	229	71.0	-704686.0	73733.0	-5828957.0
16	14	26	55	229	72.0	-922768.0	72608.0	-5828437.0
16	14	26	55	229	73.0	-860984.0	71396.0	-5827901.0
16	14	26	55	230	74.0	-454153.0	70098.0	-5827551.0
16	14	26	55	230	75.0	112193.0	69073.0	-5828498.0
16	14	26	55	230	76.0	632046.0	66666.0	-5828378.0
16	14	26	55	231	77.0	902614.0	63934.0	-5827876.0
16	14	26	55	231	78.0	826173.0	61350.0	-5828344.0
16	14	26	55	232	79.0	550478.0	59447.0	-5829226.0
16	14	26	55	306	80.0	254374.0	56686.0	-5828604.0
16	14	26	55	306	81.0	-1479.0	54164.0	-5828038.0
16	14	26	55	307	82.0	-205157.0	51965.0	-5827467.0
16	14	26	55	307	83.0	-351662.0	49619.0	-5828502.0
16	14	26	55	307	84.0	-384460.0	47201.0	-5829071.0
16	14	26	55	307	85.0	-295327.0	45446.0	-5828537.0
16	14	26	55	308	86.0	-136574.0	44983.0	-5827874.0
16	14	26	55	308	87.0	44236.0	43680.0	-5828284.0
16	14	26	55	308	88.0	202388.0	41473.0	-5829319.0
16	14	26	55	308	89.0	274707.0	39973.0	-5828954.0
16	14	26	55	309	90.0	247288.0	38068.0	-5828276.0
16	14	26	55	309	91.0	192786.0	35364.0	-5828050.0
16	14	26	55	309	92.0	178805.0	32755.0	-5829371.0
16	14	26	55	309	93.0	190075.0	31219.0	-5829590.0
16	14	26	55	309	94.0	197865.0	30607.0	-5828916.0
16	14	26	55	310	95.0	213625.0	28977.0	-5828442.0
16	14	26	55	310	96.0	234321.0	26831.0	-5829336.0
16	14	26	55	310	97.0	257218.0	25114.0	-5830219.0
16	14	26	55	310	98.0	268024.0	22956.0	-5829616.0
16	14	26	55	311	99.0	260024.0	20223.0	-5829021.0
16	14	26	55	311	100.0	249829.0	18865.0	-5828429.0
16	14	26	55	311	101.0	255721.0	18178.0	-5829215.0
16	14	26	55	312	102.0	279984.0	16892.0	-5829857.0
16	14	26	55	312	103.0	314368.0	14740.0	-5829337.0
16	14	26	55	312	104.0	345636.0	12305.0	-5828707.0
16	14	26	55	312	105.0	344414.0	10691.0	-5828790.0
16	14	26	55	313	106.0	300263.0	7842.0	-5829886.0
16	14	26	55	313	107.0	245260.0	5421.0	-5829552.0
16	14	26	55	313	108.0	201466.0	4459.0	-5828895.0
16	14	26	55	313	109.0	176664.0	4178.0	-5828719.0
16	14	26	55	314	110.0	150510.0	3284.0	-5830020.0
16	14	26	55	314	111.0	127499.0	1791.0	-5829939.0
16	14	26	55	314	112.0	111731.0	719.0	-5829329.0
16	14	26	55	314	113.0	99574.0	-1045.0	-5828846.0
16	14	26	55	315	114.0	99013.0	-3879.0	-5829657.0
16	14	26	55	315	115.0	100322.0	-5472.0	-5830127.0
16	14	26	55	315	116.0	83264.0	-6228.0	-5829536.0
16	14	26	55	315	117.0	59344.0	-7181.0	-5828920.0
16	14	26	55	315	118.0	46342.0	-8280.0	-5828740.0
16	14	26	55	316	119.0	47412.0	-9917.0	-5829892.0
16	14	26	55	382	120.0	54523.0	-11213.0	-5829805.0
16	14	26	55	382	121.0	64900.0	-13588.0	-5829189.0
16	14	26	55	382	122.0	90571.0	-15792.0	-5828711.0
16	14	26	55	383	123.0	128429.0	-16619.0	-5829582.0
16	14	26	55	383	124.0	160505.0	-16626.0	-5830076.0
16	14	26	55	383	125.0	183444.0	-17494.0	-5829464.0
16	14	26	55	383	126.0	188437.0	-18569.0	-5828886.0
16	14	26	55	383	127.0	165809.0	-20498.0	-5829228.0
16	14	26	55	384	128.0	130361.0	-22792.0	-5830404.0
16	14	26	55	384	129.0	104757.0	-24971.0	-5829932.0
16	14	26	55	384	130.0	89674.0	-25721.0	-5829339.0
16	14	26	55	384	131.0	86290.0	-26042.0	-5828689.0
16	14	26	55	384	132.0	97999.0	-27356.0	-5829341.0
16	14	26	55	385	133.0	121723.0	-29785.0	-5830216.0
16	14	26	55	385	134.0	155280.0	-31563.0	-5829768.0
16	14	26	55	385	135.0	188103.0	-32722.0	-5829087.0
16	14	26	55	385	136.0	206142.0	-34581.0	-5829416.0
16	14	26	55	385	137.0	203429.0	-36444.0	-5830299.0
16	14	26	55	386	138.0	181744.0	-36936.0	-5829894.0
16	14	26	55	386	139.0	127028.0	-36159.0	-5829222.0
16	14	26	55	386	140.0	69078.0	-36904.0	-5829122.0
16	14	26	55	386	141.0	36049.0	-37489.0	-5830484.0
16	14	26	55	386	142.0	3254.0	-37848.0	-5830441.0
16	14	26	55	387	143.0	-31946.0	-37908.0	-5829710.0
16	14	26	55	387	144.0	-73531.0	-38386.0	-5829344.0
16	14	26	55	387	145.0	-92859.0	-37411.0	-5830321.0
16	14	26	55	387	146.0	-79445.0	-36771.0	-5830506.0
16	14	26	55	387	147.0	-54884.0	-36931.0	-5829786.0
16	14	26	55	388	148.0	-32662.0	-36194.0	-5829236.0
16	14	26	55	388	149.0	-17834.0	-36271.0	-5829126.0
16	14	26	55	388	150.0	3677.0	-36516.0	-5830599.0
16	14	26	55	388	151.0	8514.0	-37647.0	-5830379.0
16	14	26	55	388	152.0	-26526.0	-37589.0	-5829791.0
16	14	26	55	389	153.0	-77320.0	-37134.0	-5829247.0
16	14	26	55	389	154.0	-108777.0	-35844.0	-5829914.0
16	14	26	55	389	155.0	-116938.0	-34690.0	-5829986.0
16	14	26	55	389	156.0	-109854.0	-34578.0	-5829426.0
16	14	26	55	389	157.0	-114310.0	-34068.0	-5829105.0
16	14	26	55	458	158.0	-128696.0	-33826.0	-5830389.0
16	14	26	55	458	159.0	-139916.0	-34461.0	-5830329.0
16	14	26	55	458	160.0	-132496.0	-34037.0	-5829787.0
16	14	26	55	458	161.0	-95897.0	-32412.0	-5829182.0
16	14	26	55	459	162.0	-23097.0	-31527.0	-5829955.0
16	14	26	55	459	163.0	69202.0	-31166.0	-5830476.0
16	14	26	55	459	164.0	140187.0	-30805.0	-5829931.0
