16	15	17	53	824	44.0	-93873.0	14117.0	-5569120.0
16	15	17	53	825	45.0	-104345.0	13491.0	-5570484.0
16	15	17	53	827	46.0	-127560.0	13791.0	-5570100.0
16	15	17	53	829	47.0	-155287.0	14358.0	-5569232.0
16	15	17	53	830	48.0	-171986.0	14055.0	-5569547.0
16	15	17	53	832	49.0	-190069.0	12204.0	-5570746.0
16	15	17	53	833	50.0	-215697.0	11583.0	-5570099.0
16	15	17	53	834	51.0	-231831.0	12818.0	-5569171.0
16	15	17	53	850	52.0	-252482.0	12762.0	-5569587.0
16	15	17	53	851	53.0	-269206.0	11546.0	-5570567.0
16	15	17	53	852	54.0	-276681.0	12998.0	-5569893.0
16	15	17	53	853	55.0	-271787.0	13460.0	-5568959.0
16	15	17	53	854	56.0	-265068.0	12491.0	-5569322.0
16	15	17	53	855	57.0	-281142.0	10988.0	-5570517.0
16	15	17	53	856	58.0	-309309.0	12848.0	-5569931.0
16	15	17	53	856	59.0	-337507.0	12921.0	-5569109.0
16	15	17	53	857	60.0	-366650.0	11691.0	-5570061.0
16	15	17	53	858	61.0	-381744.0	11081.0	-5570496.0
16	15	17	53	859	62.0	-399314.0	12873.0	-5569689.0
16	15	17	53	872	63.0	-398389.0	13106.0	-5568944.0
16	15	17	53	919	64.0	-382099.0	11608.0	-5569712.0
16	15	17	53	921	65.0	-358039.0	13034.0	-5569591.0
16	15	17	53	923	66.0	-310809.0	14009.0	-5568836.0
16	15	17	53	924	67.0	-258131.0	13758.0	-5569352.0
16	15	17	53	926	68.0	-201924.0	13813.0	-5570150.0
16	15	17	53	927	69.0	-164934.0	14131.0	-5569312.0
16	15	17	53	928	70.0	-153731.0	14331.0	-5568709.0
16	15	17	53	930	71.0	-171141.0	14725.0	-5569866.0
16	15	17	53	931	72.0	-208189.0	15536.0	-5570193.0
16	15	17	53	932	73.0	-254584.0	16383.0	-5569270.0
16	15	17	53	933	74.0	-310312.0	17938.0	-5568876.0
16	15	17	53	933	75.0	-342901.0	18199.0	-5570269.0
16	15	17	53	934	76.0	-361514.0	20321.0	-5570183.0
16	15	17	53	934	77.0	-355354.0	22161.0	-5569249.0
16	15	17	53	934	78.0	-329788.0	23845.0	-5568999.0
16	15	17	53	935	96.0	135371.0	99339.0	-5568961.0
16	15	17	53	935	97.0	206071.0	103100.0	-5568796.0
16	15	17	53	936	98.0	268264.0	105024.0	-5569898.0
16	15	17	53	936	99.0	327748.0	108432.0	-5569375.0
16	15	17	53	937	100.0	385536.0	111766.0	-5568398.0
16	15	17	53	937	101.0	422142.0	115281.0	-5568556.0
16	15	17	53	938	102.0	462506.0	118860.0	-5569687.0
16	15	17	53	962	103.0	495024.0	121759.0	-5569116.0
16	15	17	53	963	104.0	534570.0	125404.0	-5568193.0
16	15	17	53	963	105.0	583878.0	129905.0	-5568691.0
16	15	17	53	968	106.0	605716.0	132599.0	-5569721.0
16	15	17	53	984	107.0	628625.0	134997.0	-5569074.0
16	15	17	53	984	108.0	632207.0	136934.0	-5568453.0
16	15	17	53	985	109.0	636619.0	138764.0	-5569862.0
16	15	17	53	986	110.0	635964.0	139715.0	-5569963.0
16	15	17	53	986	111.0	634642.0	141208.0	-5569142.0
16	15	17	53	987	112.0	622932.0	142096.0	-5569011.0
16	15	17	53	988	113.0	599119.0	142575.0	-5570199.0
16	15	17	53	988	114.0	575444.0	142720.0	-5569529.0
16	15	17	53	989	115.0	559249.0	143174.0	-5568652.0
16	15	17	53	989	116.0	562429.0	142911.0	-5568443.0
16	15	17	53	990	117.0	583836.0	142548.0	-5569737.0
16	15	17	53	990	119.0	639268.0	140724.0	-5568406.0
16	15	17	53	991	120.0	648371.0	137927.0	-5568662.0
16	15	17	53	992	121.0	638314.0	135382.0	-5569883.0
16	15	17	53	992	122.0	608879.0	133748.0	-5569199.0
16	15	17	53	992	123.0	578593.0	132138.0	-5568526.0
16	15	17	53	993	124.0	558346.0	130163.0	-5569562.0
16	15	17	54	8	125.0	550976.0	128764.0	-5569757.0
16	15	17	54	9	126.0	555065.0	127358.0	-5568847.0
16	15	17	54	18	127.0	566871.0	126598.0	-5568396.0
16	15	17	54	18	128.0	575625.0	124416.0	-5569799.0
16	15	17	54	19	129.0	582581.0	122600.0	-5569641.0
16	15	17	54	19	130.0	574779.0	120197.0	-5568779.0
16	15	17	54	20	131.0	562034.0	117514.0	-5568329.0
16	15	17	54	20	132.0	539615.0	114815.0	-5569676.0
16	15	17	54	21	133.0	515862.0	111998.0	-5569357.0
16	15	17	54	21	134.0	494253.0	108673.0	-5568522.0
16	15	17	54	22	135.0	478982.0	105116.0	-5568311.0
16	15	17	54	34	136.0	463921.0	101598.0	-5569668.0
16	15	17	54	35	137.0	432388.0	98876.0	-5569109.0
16	15	17	54	35	138.0	406665.0	96399.0	-5568417.0
16	15	17	54	36	139.0	393279.0	93071.0	-5569436.0
16	15	17	54	36	141.0	385808.0	86101.0	-5568929.0
16	15	17	54	37	142.0	380849.0	82248.0	-5568586.0
16	15	17	54	37	143.0	363929.0	77163.0	-5569893.0
16	15	17	54	37	144.0	334994.0	73820.0	-5569674.0
16	15	17	54	38	145.0	292505.0	70763.0	-5568724.0
16	15	17	54	38	146.0	253314.0	67234.0	-5568632.0
16	15	17	54	39	147.0	201931.0	64237.0	-5569867.0
16	15	17	54	53	148.0	137290.0	61218.0	-5569472.0
16	15	17	54	53	149.0	66473.0	58490.0	-5568527.0
16	15	17	54	54	150.0	-20474.0	56894.0	-5568669.0
16	15	17	54	54	151.0	-127016.0	54273.0	-5569794.0
16	15	17	54	55	152.0	-307142.0	51582.0	-5569186.0
16	15	17	54	68	153.0	-575341.0	48739.0	-5568351.0
16	15	17	54	69	154.0	-690452.0	45779.0	-5569184.0
16	15	17	54	69	155.0	-468591.0	43033.0	-5569509.0
16	15	17	54	70	156.0	-122169.0	40029.0	-5568787.0
16	15	17	54	70	157.0	153599.0	37528.0	-5569096.0
16	15	17	54	71	158.0	235429.0	34857.0	-5570155.0
16	15	17	54	72	159.0	72149.0	32122.0	-5569349.0
16	15	17	54	72	160.0	-174704.0	28828.0	-5568608.0
16	15	17	54	72	161.0	-378827.0	26098.0	-5569405.0
16	15	17	54	97	162.0	-502271.0	23514.0	-5569938.0
16	15	17	54	98	164.0	-523499.0	18227.0	-5568270.0
16	15	17	54	98	165.0	-493014.0	14257.0	-5568997.0
16	15	17	54	98	166.0	-437194.0	10966.0	-5569919.0
16	15	17	54	99	167.0	-379052.0	8285.0	-5569138.0
16	15	17	54	118	168.0	-337054.0	5683.0	-5568561.0
16	15	17	54	119	169.0	-271585.0	3588.0	-5569829.0
16	15	17	54	119	170.0	-173109.0	2747.0	-5569981.0
16	15	17	54	120	171.0	-60724.0	1081.0	-5569123.0
16	15	17	54	120	172.0	33805.0	-632.0	-5568876.0
16	15	17	54	121	173.0	82476.0	-2506.0	-5570205.0
16	15	17	54	122	174.0	88411.0	-4555.0	-5569847.0
16	15	17	54	122	175.0	62553.0	-6714.0	-5568960.0
16	15	17	54	123	176.0	33063.0	-8359.0	-5568886.0
16	15	17	54	123	177.0	8656.0	-10219.0	-5570439.0
16	15	17	54	124	186.0	-117537.0	-29664.0	-5569167.0
16	15	17	54	124	187.0	-125272.0	-33066.0	-5569471.0
16	15	17	54	125	188.0	-127877.0	-36727.0	-5570629.0
16	15	17	54	125	189.0	-127189.0	-39262.0	-5569988.0
16	15	17	54	125	190.0	-109918.0	-41769.0	-5569128.0
16	15	17	54	126	191.0	-87468.0	-43882.0	-5569806.0
16	15	17	54	126	192.0	-70692.0	-46261.0	-5570533.0
16	15	17	54	143	193.0	-66039.0	-48534.0	-5569784.0
16	15	17	54	144	194.0	-66770.0	-50236.0	-5568937.0
16	15	17	54	145	195.0	-72062.0	-50729.0	-5569586.0
16	15	17	54	157	196.0	-78321.0	-52865.0	-5570244.0
16	15	17	54	157	197.0	-75308.0	-54604.0	-5569497.0
16	15	17	54	158	198.0	-75361.0	-56898.0	-5568701.0
16	15	17	54	158	199.0	-80129.0	-59272.0	-5569852.0
16	15	17	54	158	200.0	-82697.0	-60626.0	-5570216.0
16	15	17	54	158	201.0	-77804.0	-62987.0	-5569426.0
16	15	17	54	159	202.0	-71912.0	-65371.0	-5568829.0
16	15	17	54	159	203.0	-69452.0	-66958.0	-5569712.0
16	15	17	54	159	204.0	-67291.0	-68103.0	-5569404.0
16	15	17	54	160	205.0	-70556.0	-69386.0	-5568768.0
16	15	17	54	160	206.0	-77959.0	-70852.0	-5569790.0
16	15	17	54	160	207.0	-84226.0	-72252.0	-5570016.0
16	15	17	54	161	209.0	-85572.0	-75259.0	-5568881.0
16	15	17	54	161	210.0	-82297.0	-78605.0	-5570214.0
16	15	17	54	161	211.0	-84306.0	-80576.0	-5569894.0
16	15	17	54	162	212.0	-96969.0	-81679.0	-5568932.0
16	15	17	54	162	213.0	-103152.0	-82912.0	-5568751.0
16	15	17	54	162	214.0	-104266.0	-84154.0	-5570101.0
16	15	17	54	187	215.0	-105899.0	-84953.0	-5569794.0
16	15	17	54	187	216.0	-108477.0	-85300.0	-5568866.0
16	15	17	54	201	217.0	-101997.0	-84161.0	-5568947.0
16	15	17	54	201	218.0	-84847.0	-84269.0	-5570367.0
16	15	17	54	202	219.0	-65274.0	-84484.0	-5569924.0
16	15	17	54	202	220.0	-46039.0	-84472.0	-5569097.0
16	15	17	54	203	221.0	-46863.0	-84135.0	-5570012.0
16	15	17	54	203	222.0	-57607.0	-83909.0	-5570684.0
16	15	17	54	203	223.0	-74304.0	-83739.0	-5569917.0
16	15	17	54	204	224.0	-77510.0	-83399.0	-5569111.0
16	15	17	54	204	225.0	-66196.0	-82863.0	-5569833.0
16	15	17	54	204	226.0	-47431.0	-82631.0	-5570006.0
16	15	17	54	205	227.0	-26633.0	-82575.0	-5569176.0
16	15	17	54	205	228.0	-4406.0	-81918.0	-5569211.0
16	15	17	54	205	229.0	11595.0	-81762.0	-5570419.0
16	15	17	54	206	231.0	7828.0	-81347.0	-5568982.0
16	15	17	54	206	232.0	1859.0	-81839.0	-5569517.0
16	15	17	54	207	233.0	-3961.0	-82329.0	-5570212.0
16	15	17	54	207	234.0	-12700.0	-81719.0	-5569414.0
16	15	17	54	207	235.0	-32669.0	-81019.0	-5568818.0
16	15	17	54	208	236.0	-63475.0	-80116.0	-5569889.0
16	15	17	54	208	237.0	-91071.0	-79021.0	-5569970.0
16	15	17	54	233	238.0	-106644.0	-78308.0	-5569059.0
16	15	17	54	234	239.0	-98343.0	-76560.0	-5568746.0
16	15	17	54	235	240.0	-60421.0	-73690.0	-5569839.0
16	15	17	54	253	241.0	1991.0	-72216.0	-5569414.0
16	15	17	54	253	242.0	89858.0	-70900.0	-5568551.0
16	15	17	54	254	243.0	162526.0	-69569.0	-5568738.0
16	15	17	54	255	244.0	176254.0	-68535.0	-5569888.0
16	15	17	54	255	245.0	105276.0	-67136.0	-5569197.0
16	15	17	54	256	246.0	-11566.0	-65931.0	-5568366.0
16	15	17	54	256	247.0	-96994.0	-64707.0	-5568349.0
16	15	17	54	257	248.0	-120406.0	-63976.0	-5569080.0
16	15	17	54	258	249.0	-60970.0	-62771.0	-5568390.0
16	15	17	54	258	250.0	21661.0	-61359.0	-5568526.0
16	15	17	54	259	251.0	82513.0	-60231.0	-5569811.0
16	15	17	54	259	252.0	112719.0	-59276.0	-5569142.0
16	15	17	54	260	254.0	144177.0	-57428.0	-5568951.0
16	15	17	54	260	255.0	149266.0	-58650.0	-5569989.0
16	15	17	54	261	0.0	131351.0	-58645.0	-5569256.0
16	15	17	54	262	1.0	104218.0	-57707.0	-5568477.0
16	15	17	54	262	2.0	81920.0	-56849.0	-5569321.0
16	15	17	54	263	3.0	54105.0	-56270.0	-5569971.0
16	15	17	54	325	4.0	19837.0	-55587.0	-5569185.0
16	15	17	54	326	5.0	-21747.0	-54419.0	-5568407.0
16	15	17	54	327	6.0	-59119.0	-52204.0	-5569557.0
16	15	17	54	328	7.0	-107297.0	-50295.0	-5570188.0
16	15	17	54	329	8.0	-161499.0	-49431.0	-5569400.0
16	15	17	54	330	9.0	-189819.0	-48529.0	-5568584.0
16	15	17	54	330	10.0	-215771.0	-48244.0	-5569546.0
16	15	17	54	331	11.0	-278589.0	-47303.0	-5570042.0
16	15	17	54	332	12.0	-336121.0	-47388.0	-5569239.0
16	15	17	54	340	13.0	-379966.0	-46605.0	-5568813.0
16	15	17	54	340	14.0	-385401.0	-45714.0	-5569580.0
16	15	17	54	341	15.0	-369414.0	-45582.0	-5568994.0
16	15	17	54	342	16.0	-341704.0	-44842.0	-5568680.0
16	15	17	54	343	17.0	-327014.0	-44051.0	-5570045.0
16	15	17	54	343	18.0	-313577.0	-43394.0	-5569837.0
16	15	17	54	344	43.0	194187.0	-36561.0	-5569112.0
16	15	17	54	344	44.0	236055.0	-38146.0	-5570446.0
16	15	17	54	345	45.0	236595.0	-38484.0	-5569873.0
16	15	17	54	364	46.0	223979.0	-38280.0	-5569007.0
16	15	17	54	364	47.0	219329.0	-37797.0	-5569136.0
16	15	17	54	365	48.0	202376.0	-37386.0	-5570374.0
16	15	17	54	382	49.0	173394.0	-37234.0	-5569776.0
16	15	17	54	383	50.0	133307.0	-36341.0	-5568872.0
16	15	17	54	413	51.0	110956.0	-33558.0	-5569129.0
16	15	17	54	419	52.0	110829.0	-32846.0	-5570251.0
16	15	17	54	419	53.0	124984.0	-32066.0	-5569639.0
16	15	17	54	419	54.0	147419.0	-31889.0	-5568807.0
16	15	17	54	420	55.0	155064.0	-31424.0	-5569712.0
16	15	17	54	420	56.0	137979.0	-30559.0	-5570408.0
16	15	17	54	420	57.0	98129.0	-30368.0	-5569634.0
16	15	17	54	420	58.0	28844.0	-29587.0	-5568909.0
16	15	17	54	434	59.0	-56586.0	-29394.0	-5570131.0
16	15	17	54	435	60.0	-112596.0	-29014.0	-5570363.0
16	15	17	54	435	61.0	-132894.0	-28404.0	-5569540.0
16	15	17	54	435	62.0	-133407.0	-28687.0	-5568897.0
16	15	17	54	435	63.0	-88946.0	-28276.0	-5570247.0
16	15	17	54	436	65.0	52469.0	-27731.0	-5569560.0
16	15	17	54	436	66.0	128277.0	-27536.0	-5569107.0
16	15	17	54	436	87.0	148109.0	-16414.0	-5570352.0
16	15	17	54	436	88.0	147424.0	-16926.0	-5569444.0
16	15	17	54	437	89.0	177388.0	-17802.0	-5569722.0
16	15	17	54	437	90.0	189302.0	-17781.0	-5570864.0
16	15	17	54	437	91.0	171514.0	-17412.0	-5570232.0
16	15	17	54	437	92.0	130354.0	-17324.0	-5569461.0
16	15	17	54	437	93.0	94553.0	-17227.0	-5570604.0
16	15	17	54	457	94.0	56652.0	-16779.0	-5571266.0
16	15	17	54	469	95.0	47441.0	-15647.0	-5570461.0
16	15	17	54	469	96.0	84456.0	-13251.0	-5569950.0
16	15	17	54	469	97.0	136358.0	-11842.0	-5571492.0
16	15	17	54	469	98.0	185841.0	-11229.0	-5571542.0
16	15	17	54	470	99.0	242723.0	-10895.0	-5570644.0
16	15	17	54	470	100.0	261156.0	-10662.0	-5569879.0
16	15	17	54	470	101.0	244389.0	-9564.0	-5570611.0
16	15	17	54	470	102.0	246247.0	-9162.0	-5571240.0
16	15	17	54	471	103.0	253744.0	-8804.0	-5570399.0
16	15	17	54	471	104.0	282289.0	-7861.0	-5570106.0
16	15	17	54	471	105.0	325066.0	-7040.0	-5571610.0
16	15	17	54	472	106.0	364928.0	-6473.0	-5571397.0
16	15	17	54	472	107.0	381647.0	-6114.0	-5570522.0
16	15	17	54	472	108.0	374313.0	-5568.0	-5570597.0
16	15	17	54	473	110.0	325284.0	-4417.0	-5571064.0
16	15	17	54	487	111.0	274971.0	-5578.0	-5570216.0
16	15	17	54	487	112.0	221786.0	-6416.0	-5570913.0
16	15	17	54	488	113.0	156284.0	-6049.0	-5571657.0
16	15	17	54	488	114.0	102071.0	-5503.0	-5570881.0
16	15	17	54	488	115.0	71396.0	-5435.0	-5569986.0
16	15	17	54	506	116.0	63070.0	-5467.0	-5570839.0
16	15	17	54	506	117.0	41376.0	-4662.0	-5571443.0
16	15	17	54	507	118.0	18256.0	-2633.0	-5570689.0
16	15	17	54	507	119.0	9389.0	-1055.0	-5569925.0
16	15	17	54	507	120.0	-17187.0	-612.0	-5571037.0
16	15	17	54	508	121.0	-30027.0	-401.0	-5571391.0
16	15	17	54	526	122.0	-28124.0	139.0	-5570608.0
16	15	17	54	526	123.0	-39182.0	543.0	-5570142.0
16	15	17	54	526	124.0	-34013.0	1178.0	-5571585.0
16	15	17	54	527	125.0	-24891.0	1568.0	-5571397.0
16	15	17	54	527	126.0	-24449.0	2019.0	-5570568.0
16	15	17	54	528	127.0	-35844.0	2736.0	-5570607.0
16	15	17	54	528	128.0	-95742.0	3921.0	-5571863.0
16	15	17	54	528	129.0	-196499.0	4419.0	-5571182.0
16	15	17	54	528	130.0	-321067.0	4692.0	-5570349.0
16	15	17	54	529	132.0	-905831.0	5784.0	-5571504.0
16	15	17	54	529	133.0	-1263358.0	5857.0	-5570781.0
16	15	17	54	529	134.0	-1436367.0	4494.0	-5569980.0
16	15	17	54	530	135.0	-1409933.0	4480.0	-5570736.0
16	15	17	54	530	136.0	-1226107.0	4866.0	-5571672.0
16	15	17	54	530	137.0	-934245.0	5260.0	-5570855.0
16	15	17	54	531	138.0	-559258.0	5723.0	-5570244.0
16	15	17	54	547	139.0	-180142.0	6279.0	-5571449.0
16	15	17	54	548	140.0	116738.0	7110.0	-5571779.0
16	15	17	54	572	141.0	311583.0	9340.0	-5570892.0
16	15	17	54	573	142.0	393256.0	9912.0	-5570340.0
16	15	17	54	573	143.0	359973.0	10665.0	-5571549.0
16	15	17	54	573	144.0	245579.0	10655.0	-5571486.0
16	15	17	54	573	145.0	60190.0	11039.0	-5570570.0
16	15	17	54	574	146.0	-146644.0	11664.0	-5570259.0
16	15	17	54	574	147.0	-316795.0	11972.0	-5571548.0
16	15	17	54	574	148.0	-424281.0	12331.0	-5571150.0
16	15	17	54	574	149.0	-384126.0	12649.0	-5570299.0
16	15	17	54	575	150.0	-181253.0	13120.0	-5569972.0
16	15	17	54	575	151.0	53721.0	13304.0	-5571337.0
16	15	17	54	575	152.0	174213.0	13555.0	-5570927.0
16	15	17	54	576	153.0	133782.0	13764.0	-5570113.0
16	15	17	54	576	155.0	-74759.0	14585.0	-5570538.0
16	15	17	54	576	156.0	-55199.0	13109.0	-5570001.0
16	15	17	54	577	157.0	37715.0	11781.0	-5570015.0
16	15	17	54	577	158.0	132220.0	11849.0	-5571282.0
16	15	17	54	577	159.0	187676.0	11889.0	-5570740.0
16	15	17	54	578	160.0	221512.0	11754.0	-5569840.0
16	15	17	54	595	161.0	228992.0	12123.0	-5570014.0
16	15	17	54	595	162.0	195682.0	12732.0	-5571234.0
16	15	17	54	596	163.0	110086.0	14879.0	-5570609.0
16	15	17	54	596	164.0	-38789.0	16793.0	-5569683.0
16	15	17	54	596	165.0	-190057.0	17058.0	-5570233.0
16	15	17	54	596	166.0	-296389.0	17273.0	-5571074.0
16	15	17	54	619	167.0	-374680.0	17524.0	-5570364.0
16	15	17	54	620	168.0	-415196.0	17869.0	-5569457.0
16	15	17	54	620	169.0	-425040.0	18239.0	-5570112.0
16	15	17	54	620	170.0	-398042.0	17975.0	-5571055.0
16	15	17	54	621	171.0	-354469.0	17898.0	-5570360.0
16	15	17	54	621	172.0	-301578.0	18138.0	-5570036.0
16	15	17	54	621	173.0	-247262.0	18627.0	-5571447.0
16	15	17	54	621	174.0	-210812.0	18695.0	-5571071.0
16	15	17	54	622	175.0	-180534.0	19033.0	-5570268.0
16	15	17	54	622	177.0	-114393.0	18549.0	-5570698.0
16	15	17	54	622	178.0	-67128.0	18106.0	-5570276.0
16	15	17	54	622	179.0	-29513.0	16200.0	-5569562.0
16	15	17	54	623	180.0	12194.0	15353.0	-5570437.0
16	15	17	54	623	181.0	53524.0	14856.0	-5571036.0
16	15	17	54	623	182.0	90245.0	14858.0	-5570146.0
16	15	17	54	623	183.0	132773.0	14303.0	-5569688.0
16	15	17	54	645	184.0	177188.0	13894.0	-5570919.0
16	15	17	54	646	185.0	204929.0	14002.0	-5570959.0
16	15	17	54	646	186.0	227521.0	16038.0	-5570049.0
16	15	17	54	646	187.0	242964.0	16707.0	-5569903.0
16	15	17	54	647	188.0	268791.0	16752.0	-5571403.0
16	15	17	54	647	189.0	313741.0	17247.0	-5571144.0
16	15	17	54	647	190.0	351844.0	17586.0	-5570219.0
16	15	17	54	648	191.0	394299.0	17017.0	-5570398.0
16	15	17	54	648	192.0	432352.0	16574.0	-5571575.0
16	15	17	54	648	193.0	474127.0	16226.0	-5571017.0
16	15	17	54	648	194.0	515120.0	16782.0	-5570075.0
16	15	17	54	649	195.0	538786.0	17142.0	-5570473.0
16	15	17	54	649	196.0	571356.0	17219.0	-5571470.0
16	15	17	54	649	197.0	601091.0	17186.0	-5570797.0
16	15	17	54	649	198.0	627323.0	17296.0	-5569899.0
16	15	17	54	672	200.0	661193.0	17354.0	-5571676.0
16	15	17	54	673	201.0	673753.0	16276.0	-5570949.0
16	15	17	54	673	202.0	676031.0	15354.0	-5570190.0
16	15	17	54	673	203.0	663688.0	15979.0	-5571106.0
16	15	17	54	674	204.0	647286.0	17291.0	-5571588.0
16	15	17	54	674	205.0	623549.0	18113.0	-5570766.0
16	15	17	54	736	206.0	595455.0	19102.0	-5570181.0
16	15	17	54	754	207.0	550941.0	21124.0	-5571316.0
16	15	17	54	755	208.0	505503.0	24947.0	-5571206.0
16	15	17	54	755	209.0	448678.0	28404.0	-5570339.0
16	15	17	54	756	210.0	372900.0	31206.0	-5570486.0
16	15	17	54	757	211.0	309494.0	34099.0	-5571832.0
16	15	17	54	758	212.0	240008.0	37523.0	-5571262.0
16	15	17	54	758	213.0	166470.0	41189.0	-5570338.0
16	15	17	54	759	214.0	99835.0	45185.0	-5570461.0
16	15	17	54	760	215.0	49208.0	49204.0	-5571666.0
16	15	17	54	760	216.0	-8171.0	53579.0	-5571085.0
16	15	17	54	761	217.0	-57184.0	58582.0	-5570194.0
16	15	17	54	762	218.0	-93181.0	64058.0	-5570579.0
16	15	17	54	763	219.0	-123075.0	69573.0	-5571555.0
16	15	17	54	763	220.0	-139344.0	74969.0	-5570876.0
16	15	17	54	764	245.0	50373.0	163024.0	-5571822.0
16	15	17	54	765	246.0	31541.0	161641.0	-5571252.0
16	15	17	54	765	247.0	15197.0	160983.0	-5570347.0
16	15	17	54	766	248.0	1036.0	160479.0	-5570472.0
16	15	17	54	767	249.0	-13924.0	159706.0	-5571710.0
16	15	17	54	768	250.0	-37371.0	159036.0	-5571145.0
16	15	17	54	796	251.0	-78997.0	158007.0	-5570356.0
16	15	17	54	797	252.0	-121502.0	157022.0	-5571056.0
16	15	17	54	797	253.0	-145880.0	157621.0	-5571593.0
16	15	17	54	797	254.0	-140808.0	156842.0	-5570772.0
16	15	17	54	798	255.0	-109644.0	155399.0	-5570481.0
16	15	17	54	798	0.0	-44372.0	154114.0	-5571809.0
16	15	17	54	798	1.0	21839.0	152543.0	-5571429.0
16	15	17	54	799	2.0	17536.0	150167.0	-5570542.0
16	15	17	54	799	3.0	-43924.0	147374.0	-5570299.0
16	15	17	54	827	4.0	-116663.0	144616.0	-5571716.0
16	15	17	54	827	5.0	-162467.0	141920.0	-5571387.0
16	15	17	54	827	6.0	-165806.0	138347.0	-5570489.0
16	15	17	54	828	7.0	-156552.0	135030.0	-5571012.0
16	15	17	54	828	8.0	-168824.0	131637.0	-5572100.0
16	15	17	54	828	9.0	-195192.0	128433.0	-5571459.0
16	15	17	54	829	11.0	-196642.0	122257.0	-5571942.0
16	15	17	54	829	12.0	-161459.0	117603.0	-5572381.0
16	15	17	54	829	13.0	-85979.0	112278.0	-5571619.0
16	15	17	54	830	14.0	-16762.0	108061.0	-5570867.0
16	15	17	54	830	15.0	14729.0	105059.0	-5572047.0
16	15	17	54	830	16.0	32974.0	102757.0	-5572420.0
16	15	17	54	831	17.0	46096.0	99070.0	-5571651.0
16	15	17	54	831	18.0	72815.0	95287.0	-5570967.0
16	15	17	54	861	19.0	89827.0	91454.0	-5571866.0
16	15	17	54	862	34.0	302258.0	36654.0	-5572576.0
16	15	17	54	862	35.0	59205.0	31150.0	-5571916.0
16	15	17	54	863	36.0	-125449.0	27176.0	-5571002.0
16	15	17	54	863	37.0	-187036.0	24009.0	-5571469.0
16	15	17	54	864	38.0	-195542.0	20629.0	-5572542.0
16	15	17	54	864	39.0	-243976.0	17289.0	-5571864.0
16	15	17	54	896	40.0	-319357.0	14253.0	-5571026.0
16	15	17	54	896	41.0	-409627.0	12009.0	-5571852.0
16	15	17	54	896	42.0	-452876.0	10598.0	-5572546.0
16	15	17	54	897	43.0	-396601.0	7814.0	-5571786.0
16	15	17	54	897	44.0	-266006.0	5185.0	-5571311.0
16	15	17	54	897	45.0	-143616.0	2696.0	-5572732.0
16	15	17	54	898	46.0	-15257.0	300.0	-5572605.0
16	15	17	54	898	47.0	111097.0	-2339.0	-5571803.0
16	15	17	54	899	48.0	176383.0	-5175.0	-5572208.0
16	15	17	54	899	49.0	177699.0	-7854.0	-5573335.0
16	15	17	54	899	50.0	144919.0	-10778.0	-5572565.0
16	15	17	54	900	51.0	98049.0	-13267.0	-5571644.0
16	15	17	54	900	52.0	54958.0	-16174.0	-5571682.0
16	15	17	54	900	53.0	19459.0	-18453.0	-5573070.0
16	15	17	54	901	54.0	-12087.0	-20868.0	-5572562.0
16	15	17	54	901	56.0	-55533.0	-25859.0	-5572132.0
16	15	17	54	901	57.0	-51219.0	-29412.0	-5573261.0
16	15	17	54	902	58.0	-44201.0	-33387.0	-5572597.0
16	15	17	54	902	59.0	-33393.0	-36021.0	-5571842.0
16	15	17	54	903	60.0	-23316.0	-38607.0	-5572901.0
16	15	17	54	903	61.0	-18284.0	-40906.0	-5573244.0
16	15	17	54	903	62.0	-12791.0	-43151.0	-5572437.0
16	15	17	54	930	63.0	-9457.0	-45523.0	-5571704.0
16	15	17	54	930	64.0	-127.0	-46902.0	-5572949.0
16	15	17	54	931	65.0	9728.0	-47573.0	-5573187.0
16	15	17	54	931	66.0	28177.0	-49927.0	-5572416.0
16	15	17	54	932	67.0	42191.0	-51861.0	-5571684.0
16	15	17	54	932	68.0	54011.0	-54220.0	-5572260.0
16	15	17	54	932	69.0	71203.0	-56658.0	-5571919.0
16	15	17	54	933	70.0	98901.0	-58557.0	-5571556.0
16	15	17	54	933	71.0	137464.0	-60723.0	-5573008.0
16	15	17	54	933	72.0	188026.0	-63143.0	-5573013.0
16	15	17	54	934	73.0	233689.0	-65523.0	-5572103.0
16	15	17	54	934	74.0	262748.0	-68054.0	-5571989.0
16	15	17	54	934	75.0	280799.0	-71032.0	-5573587.0
16	15	17	54	935	76.0	294963.0	-73202.0	-5573351.0
16	15	17	54	935	77.0	317022.0	-75340.0	-5572433.0
16	15	17	54	935	79.0	382363.0	-79718.0	-5573890.0
16	15	17	54	936	80.0	405349.0	-83269.0	-5573304.0
16	15	17	54	936	81.0	419719.0	-86211.0	-5572391.0
16	15	17	54	936	82.0	421835.0	-88006.0	-5572715.0
16	15	17	54	937	83.0	416018.0	-90053.0	-5573842.0
16	15	17	54	937	84.0	397194.0	-91774.0	-5573215.0
16	15	17	54	965	85.0	376257.0	-93327.0	-5572322.0
16	15	17	54	966	86.0	359630.0	-94555.0	-5572724.0
16	15	17	54	966	87.0	340006.0	-93824.0	-5573742.0
16	15	17	54	967	88.0	327391.0	-93878.0	-5573061.0
16	15	17	54	967	89.0	315661.0	-94916.0	-5572216.0
16	15	17	54	967	90.0	307928.0	-95406.0	-5572956.0
16	15	17	54	968	91.0	293898.0	-96156.0	-5573853.0
16	15	17	54	968	92.0	282931.0	-96664.0	-5573110.0
16	15	17	54	969	93.0	263043.0	-97227.0	-5572637.0
16	15	17	54	969	94.0	242872.0	-97774.0	-5573894.0
16	15	17	54	969	95.0	220543.0	-98121.0	-5573725.0
16	15	17	54	970	96.0	201902.0	-98249.0	-5572864.0
16	15	17	54	970	97.0	190033.0	-98197.0	-5572781.0
16	15	17	54	970	98.0	173428.0	-97386.0	-5574220.0
16	15	17	54	971	99.0	147162.0	-97057.0	-5573771.0
16	15	17	54	971	101.0	84758.0	-96899.0	-5572544.0
16	15	17	54	972	102.0	56674.0	-97158.0	-5573791.0
16	15	17	54	972	103.0	41737.0	-98181.0	-5573567.0
16	15	17	54	973	104.0	33534.0	-97952.0	-5572646.0
16	15	17	54	973	105.0	30611.0	-97664.0	-5572532.0
16	15	17	54	973	106.0	24199.0	-97161.0	-5573705.0
16	15	17	55	1	107.0	20145.0	-96265.0	-5573287.0
16	15	17	55	1	108.0	24971.0	-95434.0	-5572426.0
16	15	17	55	2	109.0	38869.0	-92780.0	-5573200.0
16	15	17	55	2	110.0	64986.0	-90563.0	-5574019.0
16	15	17	55	2	111.0	92967.0	-88962.0	-5573287.0
16	15	17	55	3	112.0	117934.0	-87450.0	-5572429.0
16	15	17	55	3	113.0	132038.0	-85951.0	-5573204.0
16	15	17	55	34	114.0	146168.0	-84072.0	-5573737.0
16	15	17	55	34	115.0	156446.0	-82436.0	-5572964.0
16	15	17	55	35	116.0	160824.0	-80835.0	-5572115.0
16	15	17	55	35	117.0	161468.0	-79574.0	-5573069.0
16	15	17	55	36	118.0	161488.0	-78087.0	-5573534.0
16	15	17	55	36	119.0	161989.0	-76524.0	-5572762.0
16	15	17	55	36	120.0	144689.0	-74936.0	-5572009.0
16	15	17	55	37	121.0	119963.0	-72912.0	-5572735.0
16	15	17	55	37	124.0	95856.0	-68634.0	-5573349.0
16	15	17	55	37	125.0	93928.0	-69206.0	-5573367.0
16	15	17	55	38	126.0	86569.0	-68196.0	-5572416.0
16	15	17	55	38	127.0	77023.0	-67217.0	-5572247.0
16	15	17	55	38	128.0	80526.0	-65890.0	-5573676.0
16	15	17	55	39	129.0	90196.0	-64531.0	-5573408.0
16	15	17	55	71	130.0	77258.0	-63254.0	-5572457.0
16	15	17	55	72	131.0	30347.0	-61249.0	-5572101.0
16	15	17	55	72	132.0	-27501.0	-58941.0	-5573325.0
16	15	17	55	73	133.0	-70013.0	-57385.0	-5573094.0
16	15	17	55	73	134.0	-71318.0	-56236.0	-5572175.0
16	15	17	55	74	135.0	-41111.0	-54965.0	-5572330.0
16	15	17	55	74	136.0	-16461.0	-53867.0	-5573529.0
16	15	17	55	75	137.0	-39019.0	-52356.0	-5572931.0
16	15	17	55	75	138.0	-105897.0	-51932.0	-5572112.0
16	15	17	55	75	139.0	-172474.0	-50721.0	-5573002.0
16	15	17	55	76	140.0	-199994.0	-49480.0	-5573668.0
16	15	17	55	76	141.0	-200502.0	-48636.0	-5572876.0
16	15	17	55	77	142.0	-181088.0	-47661.0	-5572031.0
16	15	17	55	77	143.0	-169507.0	-46686.0	-5572343.0
16	15	17	55	77	144.0	-153086.0	-45768.0	-5572548.0
16	15	17	55	78	146.0	-143348.0	-44143.0	-5572729.0
16	15	17	55	78	147.0	-154250.0	-45448.0	-5573572.0
16	15	17	55	78	148.0	-150441.0	-46568.0	-5572723.0
16	15	17	55	79	149.0	-99048.0	-46157.0	-5572022.0
16	15	17	55	79	150.0	-37990.0	-45821.0	-5572976.0
16	15	17	55	80	151.0	-8392.0	-45337.0	-5573556.0
16	15	17	55	113	152.0	-14011.0	-44626.0	-5572722.0
16	15	17	55	113	153.0	-43901.0	-43866.0	-5572006.0
16	15	17	55	114	154.0	-45449.0	-41707.0	-5573064.0
16	15	17	55	114	155.0	-14446.0	-40696.0	-5573521.0
16	15	17	55	115	156.0	11568.0	-40239.0	-5572644.0
16	15	17	55	115	157.0	9103.0	-39931.0	-5572410.0
16	15	17	55	115	158.0	-12879.0	-39369.0	-5573877.0
16	15	17	55	116	159.0	-30266.0	-39087.0	-5573525.0
16	15	17	55	116	160.0	-36606.0	-38572.0	-5572654.0
16	15	17	55	116	161.0	-34876.0	-38166.0	-5572376.0
16	15	17	55	117	162.0	-23219.0	-37841.0	-5573717.0
16	15	17	55	117	163.0	-6942.0	-37419.0	-5573304.0
16	15	17	55	117	164.0	5398.0	-37356.0	-5572473.0
16	15	17	55	118	165.0	-11956.0	-36929.0	-5572349.0
16	15	17	55	118	166.0	-47513.0	-36576.0	-5573163.0
16	15	17	55	118	168.0	-67385.0	-36106.0	-5572157.0
16	15	17	55	119	169.0	-24282.0	-36020.0	-5573490.0
16	15	17	55	119	170.0	9869.0	-37898.0	-5573256.0
16	15	17	55	119	171.0	21493.0	-38171.0	-5572397.0
16	15	17	55	120	172.0	5044.0	-38355.0	-5572651.0
16	15	17	55	120	173.0	-14549.0	-38545.0	-5573714.0
16	15	17	55	120	174.0	-8157.0	-38581.0	-5573068.0
16	15	17	55	152	175.0	-10207.0	-38264.0	-5572249.0
16	15	17	55	152	176.0	-30431.0	-37541.0	-5573248.0
16	15	17	55	153	177.0	-56021.0	-35739.0	-5574019.0
16	15	17	55	153	178.0	-83638.0	-34324.0	-5573220.0
16	15	17	55	154	179.0	-92440.0	-33975.0	-5572327.0
16	15	17	55	154	180.0	-81714.0	-33457.0	-5573219.0
16	15	17	55	154	181.0	-73994.0	-32785.0	-5574141.0
16	15	17	55	155	182.0	-78987.0	-32089.0	-5573424.0
16	15	17	55	155	183.0	-80136.0	-31317.0	-5572531.0
16	15	17	55	155	184.0	-79212.0	-30748.0	-5573176.0
16	15	17	55	156	185.0	-92159.0	-30712.0	-5574148.0
16	15	17	55	156	186.0	-116735.0	-30392.0	-5573464.0
16	15	17	55	157	187.0	-134944.0	-29469.0	-5572709.0
16	15	17	55	157	188.0	-126692.0	-29334.0	-5573779.0
16	15	17	55	157	189.0	-112041.0	-28563.0	-5574077.0
16	15	17	55	158	191.0	-161133.0	-28152.0	-5572684.0
16	15	17	55	158	192.0	-208165.0	-29546.0	-5573581.0
16	15	17	55	158	193.0	-211912.0	-30871.0	-5573256.0
16	15	17	55	159	194.0	-165096.0	-31034.0	-5572562.0
16	15	17	55	159	195.0	-107732.0	-30658.0	-5573394.0
16	15	17	55	159	196.0	-67784.0	-30171.0	-5573985.0
16	15	17	55	192	197.0	-63942.0	-30212.0	-5573083.0
16	15	17	55	192	198.0	-66877.0	-29516.0	-5572624.0
16	15	17	55	193	199.0	-55946.0	-27509.0	-5573776.0
16	15	17	55	193	200.0	-40448.0	-25672.0	-5573773.0
16	15	17	55	194	201.0	-27379.0	-24956.0	-5572834.0
16	15	17	55	194	202.0	-20552.0	-24127.0	-5572524.0
16	15	17	55	194	203.0	-12624.0	-23948.0	-5573896.0
16	15	17	55	195	204.0	-4222.0	-23130.0	-5573697.0
16	15	17	55	195	205.0	13941.0	-22636.0	-5572792.0
16	15	17	55	195	206.0	62631.0	-23072.0	-5573092.0
16	15	17	55	196	207.0	125634.0	-23090.0	-5574212.0
16	15	17	55	196	208.0	157566.0	-22634.0	-5573593.0
16	15	17	55	196	209.0	159716.0	-21730.0	-5572749.0
16	15	17	55	197	210.0	144955.0	-20833.0	-5573212.0
16	15	17	55	197	211.0	126104.0	-20149.0	-5573564.0
16	15	17	55	197	213.0	116239.0	-19025.0	-5572696.0
16	15	17	55	231	214.0	123470.0	-19480.0	-5574018.0
16	15	17	55	232	215.0	138739.0	-20572.0	-5573475.0
16	15	17	55	275	216.0	164261.0	-20796.0	-5572694.0
16	15	17	55	320	217.0	172788.0	-20780.0	-5573353.0
16	15	17	55	320	218.0	135304.0	-20162.0	-5574159.0
16	15	17	55	321	219.0	67300.0	-19097.0	-5573367.0
16	15	17	55	321	220.0	15244.0	-17092.0	-5572638.0
16	15	17	55	322	221.0	14538.0	-16020.0	-5573582.0
16	15	17	55	322	222.0	62413.0	-15159.0	-5574148.0
16	15	17	55	322	223.0	110644.0	-14646.0	-5573300.0
16	15	17	55	323	224.0	124829.0	-14101.0	-5572772.0
16	15	17	55	323	225.0	121179.0	-13490.0	-5574197.0
16	15	17	55	323	226.0	105423.0	-12902.0	-5574226.0
16	15	17	55	324	227.0	90548.0	-11711.0	-5573311.0
16	15	17	55	324	228.0	80095.0	-11431.0	-5572761.0
16	15	17	55	324	236.0	105078.0	-7274.0	-5573329.0
16	15	17	55	325	237.0	283891.0	-8451.0	-5574651.0
16	15	17	55	367	2.0	-213928.0	2775.0	-5573100.0
16	15	17	55	368	25.0	-206544.0	12074.0	-5573476.0
16	15	17	55	368	26.0	-195408.0	10529.0	-5573645.0
16	15	17	55	369	27.0	-208504.0	9844.0	-5574831.0
16	15	17	55	369	28.0	-214219.0	9801.0	-5574256.0
16	15	17	55	369	29.0	-220547.0	9564.0	-5573414.0
16	15	17	55	369	30.0	-211170.0	8757.0	-5574306.0
16	15	17	55	370	31.0	-189145.0	8547.0	-5574718.0
16	15	17	55	370	32.0	-161134.0	8958.0	-5573945.0
16	15	17	55	370	33.0	-148146.0	11027.0	-5573294.0
16	15	17	55	371	34.0	-158442.0	11918.0	-5574576.0
16	15	17	55	371	35.0	-170095.0	11952.0	-5574575.0
16	15	17	55	371	36.0	-140266.0	12165.0	-5573777.0
16	15	17	55	372	37.0	-63701.0	12854.0	-5573032.0
16	15	17	55	372	38.0	13161.0	12936.0	-5573892.0
16	15	17	55	372	39.0	45487.0	12668.0	-5573952.0
16	15	17	55	373	40.0	39276.0	12726.0	-5573216.0
16	15	17	55	373	41.0	29228.0	12416.0	-5573926.0
16	15	17	55	374	42.0	31648.0	12002.0	-5574634.0
16	15	17	55	374	43.0	31478.0	12176.0	-5573779.0
16	15	17	55	374	44.0	19436.0	12048.0	-5573339.0
16	15	17	55	374	45.0	-9003.0	12249.0	-5574412.0
16	15	17	55	375	47.0	-79431.0	11654.0	-5573341.0
16	15	17	55	375	48.0	-103396.0	10693.0	-5573401.0
16	15	17	55	375	49.0	-122343.0	9268.0	-5574744.0
16	15	17	55	376	50.0	-143463.0	9082.0	-5574274.0
16	15	17	55	376	51.0	-180816.0	9446.0	-5573297.0
16	15	17	55	376	52.0	-204736.0	9676.0	-5573141.0
16	15	17	55	377	53.0	-200911.0	9677.0	-5574676.0
16	15	17	55	412	54.0	-177527.0	10151.0	-5574394.0
16	15	17	55	412	55.0	-160702.0	11144.0	-5573507.0
16	15	17	55	413	56.0	-153216.0	13774.0	-5573285.0
16	15	17	55	413	57.0	-133719.0	15339.0	-5574642.0
16	15	17	55	413	58.0	-104503.0	17116.0	-5574308.0
16	15	17	55	414	59.0	-79201.0	18679.0	-5573512.0
16	15	17	55	414	60.0	-61318.0	20163.0	-5574129.0
16	15	17	55	415	61.0	-72571.0	22240.0	-5574414.0
16	15	17	55	415	62.0	-93527.0	24429.0	-5573626.0
16	15	17	55	415	63.0	-100704.0	27641.0	-5573690.0
16	15	17	55	416	64.0	-100863.0	31089.0	-5574991.0
16	15	17	55	416	65.0	-101108.0	34509.0	-5574329.0
16	15	17	55	416	66.0	-112262.0	38355.0	-5573506.0
16	15	17	55	417	67.0	-132012.0	42344.0	-5573558.0
16	15	17	55	417	68.0	-126143.0	46531.0	-5574796.0
16	15	17	55	417	70.0	-56416.0	56721.0	-5573334.0
16	15	17	55	418	71.0	-33504.0	60114.0	-5573669.0
16	15	17	55	453	72.0	-44892.0	64761.0	-5574654.0
16	15	17	55	454	73.0	-56658.0	69948.0	-5573929.0
16	15	17	55	454	74.0	-48525.0	76113.0	-5573174.0
16	15	17	55	455	75.0	-12520.0	81907.0	-5574115.0
16	15	17	55	455	76.0	29006.0	87616.0	-5574428.0
16	15	17	55	455	77.0	40313.0	93485.0	-5573569.0
16	15	17	55	456	78.0	35193.0	100681.0	-5573001.0
16	15	17	55	456	79.0	38016.0	107390.0	-5574392.0
16	15	17	55	457	80.0	52216.0	113138.0	-5574380.0
16	15	17	55	457	81.0	56718.0	118638.0	-5573524.0
16	15	17	55	457	82.0	36839.0	123468.0	-5573529.0
16	15	17	55	458	83.0	26386.0	128786.0	-5574307.0
16	15	17	55	458	84.0	47900.0	133661.0	-5573601.0
16	15	17	55	458	85.0	93241.0	134849.0	-5572789.0
16	15	17	55	459	86.0	118629.0	132177.0	-5572902.0
16	15	17	55	496	87.0	111223.0	130281.0	-5573587.0
16	15	17	55	497	88.0	95270.0	130185.0	-5572851.0
16	15	17	55	497	89.0	87541.0	131720.0	-5573082.0
16	15	17	55	497	90.0	82166.0	133539.0	-5574201.0
16	15	17	55	498	92.0	51121.0	138401.0	-5572788.0
16	15	17	55	498	93.0	34885.0	139629.0	-5573440.0
16	15	17	55	498	94.0	27121.0	140316.0	-5574247.0
16	15	17	55	499	95.0	21698.0	142419.0	-5573429.0
16	15	17	55	499	96.0	18524.0	144639.0	-5572639.0
16	15	17	55	499	97.0	32537.0	146861.0	-5573561.0
16	15	17	55	500	98.0	50253.0	148533.0	-5574030.0
16	15	17	55	500	99.0	69847.0	150206.0	-5573167.0
16	15	17	55	500	100.0	93761.0	152431.0	-5572488.0
16	15	17	55	501	101.0	120611.0	155137.0	-5573721.0
16	15	17	55	501	102.0	154736.0	156733.0	-5573777.0
16	15	17	55	539	103.0	190309.0	157771.0	-5572984.0
16	15	17	55	539	104.0	196186.0	158504.0	-5572436.0
16	15	17	55	540	105.0	186300.0	158963.0	-5573946.0
16	15	17	55	540	106.0	183254.0	159088.0	-5573946.0
16	15	17	55	540	107.0	198560.0	158564.0	-5573138.0
16	15	17	55	540	108.0	222763.0	157963.0	-5572774.0
16	15	17	55	583	109.0	243655.0	156426.0	-5573614.0
16	15	17	55	583	110.0	262139.0	155315.0	-5573041.0
16	15	17	55	583	111.0	276631.0	154753.0	-5572736.0
16	15	17	55	584	112.0	278703.0	153241.0	-5574078.0
16	15	17	55	584	113.0	267683.0	151363.0	-5573859.0
16	15	17	55	584	115.0	215374.0	147348.0	-5572699.0
16	15	17	55	585	116.0	190527.0	142713.0	-5573966.0
16	15	17	55	585	117.0	174748.0	140014.0	-5573651.0
16	15	17	55	585	118.0	168605.0	138635.0	-5572720.0
16	15	17	55	586	137.0	-451864.0	69525.0	-5572774.0
16	15	17	55	586	138.0	-58381.0	65464.0	-5572770.0
16	15	17	55	586	139.0	268299.0	64619.0	-5573987.0
16	15	17	55	587	140.0	452798.0	67216.0	-5573439.0
16	15	17	55	587	141.0	392451.0	68351.0	-5572653.0
16	15	17	55	587	142.0	182912.0	68228.0	-5573462.0
16	15	17	55	588	143.0	-2216.0	67463.0	-5574139.0
16	15	17	55	588	144.0	-105486.0	66003.0	-5573322.0
16	15	17	55	588	145.0	-107309.0	64760.0	-5572581.0
16	15	17	55	629	146.0	-100106.0	63408.0	-5573612.0
16	15	17	55	630	147.0	-120359.0	61173.0	-5573928.0
16	15	17	55	630	148.0	-132558.0	57844.0	-5573108.0
16	15	17	55	630	149.0	-119702.0	54714.0	-5572457.0
16	15	17	55	631	150.0	-101036.0	50862.0	-5573694.0
16	15	17	55	631	151.0	-100468.0	47168.0	-5573738.0
16	15	17	55	631	152.0	-127793.0	43132.0	-5572908.0
16	15	17	55	632	153.0	-177970.0	38924.0	-5572595.0
16	15	17	55	632	154.0	-188695.0	34742.0	-5574078.0
16	15	17	55	632	155.0	-151775.0	30763.0	-5573706.0
16	15	17	55	633	156.0	-130797.0	27394.0	-5572946.0
16	15	17	55	633	157.0	-136784.0	23425.0	-5573527.0
16	15	17	55	633	158.0	-129539.0	19441.0	-5574345.0
16	15	17	55	633	160.0	-116572.0	12143.0	-5572875.0
16	15	17	55	634	161.0	-129975.0	6682.0	-5573881.0
16	15	17	55	634	162.0	-129947.0	2028.0	-5574134.0
16	15	17	55	634	163.0	-114171.0	-1604.0	-5573181.0
16	15	17	55	635	164.0	-92163.0	-4956.0	-5572536.0
16	15	17	55	635	165.0	-87267.0	-8646.0	-5573476.0
16	15	17	55	635	166.0	-105687.0	-12587.0	-5573868.0
16	15	17	55	636	167.0	-132482.0	-15619.0	-5572922.0
16	15	17	55	636	168.0	-157714.0	-17164.0	-5572554.0
16	15	17	55	636	169.0	-182056.0	-20214.0	-5574066.0
16	15	17	55	636	170.0	-197644.0	-23572.0	-5574012.0
16	15	17	55	637	171.0	-188537.0	-26937.0	-5573117.0
16	15	17	55	637	172.0	-132817.0	-30411.0	-5573084.0
16	15	17	55	637	173.0	-64958.0	-33801.0	-5574452.0
16	15	17	55	637	174.0	-35582.0	-36379.0	-5574067.0
16	15	17	55	638	175.0	-67048.0	-39934.0	-5573177.0
16	15	17	55	675	176.0	-118621.0	-43732.0	-5573324.0
16	15	17	55	675	177.0	-141609.0	-46915.0	-5574508.0
16	15	17	55	676	178.0	-108796.0	-50430.0	-5573972.0
16	15	17	55	676	179.0	-62178.0	-53858.0	-5573135.0
16	15	17	55	677	180.0	-34064.0	-56692.0	-5573772.0
16	15	17	55	677	182.0	-41559.0	-62981.0	-5573748.0
16	15	17	55	677	183.0	-42136.0	-66958.0	-5572917.0
16	15	17	55	678	184.0	-20681.0	-71127.0	-5573550.0
16	15	17	55	678	185.0	11825.0	-74353.0	-5574333.0
16	15	17	55	679	186.0	42711.0	-77443.0	-5573507.0
16	15	17	55	679	187.0	52863.0	-80298.0	-5573052.0
16	15	17	55	679	188.0	55406.0	-83087.0	-5574481.0
16	15	17	55	680	189.0	54833.0	-85427.0	-5574559.0
16	15	17	55	680	190.0	36102.0	-86531.0	-5573668.0
16	15	17	55	680	191.0	-1164.0	-87594.0	-5573408.0
16	15	17	55	681	192.0	-23103.0	-89401.0	-5574687.0
16	15	17	55	681	193.0	-4126.0	-91186.0	-5574394.0
16	15	17	55	723	194.0	44621.0	-93107.0	-5573528.0
16	15	17	55	723	195.0	98822.0	-94441.0	-5573109.0
16	15	17	55	723	196.0	139673.0	-95144.0	-5574339.0
16	15	17	55	724	197.0	159174.0	-96664.0	-5574250.0
16	15	17	55	724	198.0	169671.0	-97979.0	-5573321.0
16	15	17	55	725	199.0	165848.0	-98764.0	-5573146.0
16	15	17	55	725	200.0	146423.0	-99671.0	-5574592.0
16	15	17	55	725	201.0	132728.0	-100757.0	-5574323.0
16	15	17	55	726	202.0	121652.0	-101274.0	-5573389.0
16	15	17	55	726	204.0	142455.0	-102217.0	-5574687.0
16	15	17	55	726	205.0	156529.0	-103504.0	-5574087.0
16	15	17	55	727	206.0	172695.0	-105676.0	-5573190.0
16	15	17	55	727	207.0	179344.0	-106608.0	-5573516.0
16	15	17	55	727	208.0	181110.0	-106267.0	-5574591.0
16	15	17	55	728	209.0	183729.0	-106461.0	-5573961.0
16	15	17	55	728	210.0	189716.0	-106475.0	-5573005.0
16	15	17	55	728	211.0	197188.0	-106013.0	-5573008.0
16	15	17	55	728	212.0	206628.0	-105116.0	-5574249.0
16	15	17	55	729	213.0	215390.0	-102132.0	-5573751.0
16	15	17	55	729	214.0	226907.0	-100544.0	-5572880.0
16	15	17	55	729	215.0	236481.0	-99663.0	-5573092.0
16	15	17	55	730	216.0	228210.0	-98787.0	-5574396.0
16	15	17	55	730	217.0	211534.0	-97608.0	-5573821.0
16	15	17	55	730	218.0	191695.0	-96072.0	-5573000.0
16	15	17	55	731	219.0	169493.0	-94861.0	-5573421.0
16	15	17	55	769	220.0	155223.0	-93906.0	-5573562.0
16	15	17	55	770	221.0	139414.0	-92657.0	-5572883.0
16	15	17	55	770	222.0	130535.0	-90946.0	-5573718.0
16	15	17	55	770	223.0	123137.0	-89312.0	-5574274.0
16	15	17	55	771	224.0	114188.0	-87916.0	-5573397.0
16	15	17	55	771	225.0	99351.0	-87004.0	-5572749.0
16	15	17	55	772	227.0	29022.0	-84131.0	-5574101.0
16	15	17	55	772	228.0	-6429.0	-83729.0	-5573196.0
16	15	17	55	772	229.0	-53297.0	-83301.0	-5572551.0
16	15	17	55	773	230.0	-96761.0	-82542.0	-5573719.0
16	15	17	55	773	231.0	-150993.0	-81291.0	-5573997.0
16	15	17	55	773	232.0	-195459.0	-79276.0	-5573116.0
16	15	17	55	774	233.0	-227970.0	-77637.0	-5572552.0
16	15	17	55	774	234.0	-251985.0	-75909.0	-5573907.0
16	15	17	55	775	235.0	-272518.0	-73069.0	-5574121.0
16	15	17	55	775	236.0	-288878.0	-70152.0	-5573239.0
16	15	17	55	775	237.0	-290427.0	-68795.0	-5572774.0
16	15	17	55	775	238.0	-293201.0	-67177.0	-5574024.0
16	15	17	55	776	239.0	-302350.0	-65583.0	-5573877.0
16	15	17	55	776	240.0	-314432.0	-64380.0	-5573008.0
16	15	17	55	776	241.0	-321907.0	-62457.0	-5573066.0
16	15	17	55	777	242.0	-336341.0	-61266.0	-5574234.0
16	15	17	55	777	243.0	-365319.0	-59807.0	-5573548.0
16	15	17	55	777	244.0	-387681.0	-58394.0	-5572707.0
16	15	17	55	828	245.0	-398175.0	-57264.0	-5572432.0
16	15	17	55	828	246.0	-393879.0	-56638.0	-5573289.0
16	15	17	55	829	247.0	-389429.0	-55627.0	-5572682.0
16	15	17	55	829	249.0	-364952.0	-53133.0	-5573893.0
16	15	17	55	829	250.0	-342137.0	-52364.0	-5573702.0
16	15	17	55	830	251.0	-327431.0	-53362.0	-5572809.0
16	15	17	55	830	252.0	-308273.0	-53282.0	-5573053.0
16	15	17	55	830	253.0	-283104.0	-53103.0	-5574071.0
16	15	17	55	831	254.0	-254563.0	-52637.0	-5573449.0
16	15	17	55	831	255.0	-238218.0	-51767.0	-5572553.0
16	15	17	55	889	0.0	-239235.0	-51301.0	-5572764.0
16	15	17	55	890	1.0	-244017.0	-50612.0	-5573752.0
16	15	17	55	890	2.0	-246861.0	-48674.0	-5573102.0
16	15	17	55	890	3.0	-236447.0	-46938.0	-5572187.0
16	15	17	55	890	4.0	-235145.0	-46532.0	-5573078.0
16	15	17	55	891	5.0	-231518.0	-46257.0	-5573721.0
16	15	17	55	891	6.0	-228764.0	-45244.0	-5572966.0
16	15	17	55	891	7.0	-224183.0	-44705.0	-5572135.0
16	15	17	55	892	8.0	-207327.0	-44167.0	-5573079.0
16	15	17	55	892	9.0	-190619.0	-43679.0	-5573532.0
16	15	17	55	892	10.0	-167267.0	-43439.0	-5572764.0
16	15	17	55	893	11.0	-134384.0	-43362.0	-5572192.0
16	15	17	55	893	12.0	-94334.0	-43086.0	-5573207.0
16	15	17	55	893	13.0	-44350.0	-42772.0	-5572919.0
16	15	17	55	894	14.0	3459.0	-42675.0	-5572429.0
16	15	17	55	894	38.0	51544.0	-38561.0	-5574108.0
16	15	17	55	894	39.0	63178.0	-39170.0	-5573624.0
16	15	17	55	895	40.0	89657.0	-40889.0	-5572816.0
16	15	17	55	895	41.0	115708.0	-40849.0	-5572812.0
16	15	17	55	895	42.0	139631.0	-40789.0	-5574214.0
16	15	17	55	896	43.0	165759.0	-40589.0	-5573670.0
16	15	17	55	896	44.0	197467.0	-40474.0	-5572986.0
16	15	17	55	950	45.0	224823.0	-40028.0	-5573951.0
16	15	17	55	951	46.0	235764.0	-38369.0	-5574564.0
16	15	17	55	951	47.0	234074.0	-36056.0	-5573671.0
16	15	17	55	952	48.0	236343.0	-35139.0	-5572928.0
16	15	17	55	952	49.0	242843.0	-34373.0	-5573816.0
16	15	17	55	952	50.0	247918.0	-33648.0	-5574369.0
16	15	17	55	953	51.0	242394.0	-33354.0	-5573482.0
16	15	17	55	953	52.0	222277.0	-32332.0	-5572773.0
16	15	17	55	953	53.0	206698.0	-32165.0	-5574009.0
16	15	17	55	954	54.0	190183.0	-31652.0	-5574530.0
16	15	17	55	954	55.0	180564.0	-31096.0	-5573695.0
16	15	17	55	954	56.0	174286.0	-30570.0	-5573052.0
16	15	17	55	954	57.0	169001.0	-30160.0	-5574421.0
16	15	17	55	955	58.0	161419.0	-29333.0	-5574771.0
16	15	17	55	955	59.0	158479.0	-28663.0	-5573965.0
16	15	17	55	955	61.0	149644.0	-27631.0	-5574803.0
16	15	17	55	956	62.0	143197.0	-29054.0	-5574597.0
16	15	17	55	956	63.0	140556.0	-29674.0	-5573771.0
16	15	17	55	956	64.0	136668.0	-29577.0	-5573549.0
16	15	17	55	957	65.0	132004.0	-28449.0	-5574495.0
16	15	17	55	957	66.0	120030.0	-26381.0	-5573916.0
16	15	17	55	957	67.0	97968.0	-25399.0	-5573316.0
16	15	17	55	958	68.0	70869.0	-24741.0	-5574293.0
16	15	17	55	958	69.0	45669.0	-24424.0	-5574202.0
16	15	17	55	958	70.0	27919.0	-23669.0	-5573287.0
16	15	17	55	958	71.0	20545.0	-22715.0	-5572877.0
16	15	17	56	12	83.0	-28622.0	-15294.0	-5573782.0
16	15	17	56	13	84.0	-61677.0	-15097.0	-5574474.0
16	15	17	56	13	85.0	-88170.0	-16494.0	-5573774.0
16	15	17	56	13	86.0	-103491.0	-16036.0	-5573141.0
16	15	17	56	14	87.0	-111256.0	-15554.0	-5574534.0
16	15	17	56	14	88.0	-112664.0	-14962.0	-5574657.0
16	15	17	56	14	89.0	-113669.0	-14683.0	-5573858.0
16	15	17	56	14	90.0	-116684.0	-14206.0	-5573359.0
16	15	17	56	15	91.0	-118199.0	-13289.0	-5574662.0
16	15	17	56	15	92.0	-115123.0	-10270.0	-5574434.0
16	15	17	56	15	93.0	-110541.0	-8404.0	-5573641.0
16	15	17	56	16	94.0	-98321.0	-7921.0	-5573815.0
16	15	17	56	16	95.0	-94335.0	-7454.0	-5574982.0
16	15	17	56	16	96.0	-96157.0	-7072.0	-5574251.0
16	15	17	56	17	97.0	-102741.0	-6419.0	-5573426.0
16	15	17	56	17	98.0	-99936.0	-5567.0	-5573619.0
16	15	17	56	17	99.0	-95426.0	-5129.0	-5574426.0
16	15	17	56	17	100.0	-79981.0	-4117.0	-5573646.0
16	15	17	56	18	101.0	-65170.0	-3232.0	-5572846.0
16	15	17	56	18	102.0	-66222.0	-2996.0	-5573521.0
16	15	17	56	18	103.0	-100077.0	-2492.0	-5574341.0
16	15	17	56	19	104.0	-173368.0	-1928.0	-5573533.0
16	15	17	56	19	106.0	-709247.0	-519.0	-5573913.0
16	15	17	56	19	107.0	-1044759.0	-1868.0	-5574117.0
16	15	17	56	20	108.0	-1207255.0	-2211.0	-5573224.0
16	15	17	56	20	109.0	-1126264.0	-2299.0	-5572761.0
16	15	17	56	20	110.0	-832633.0	-1793.0	-5574143.0
16	15	17	56	21	111.0	-395496.0	-1094.0	-5574022.0
16	15	17	56	72	112.0	82874.0	-806.0	-5573216.0
16	15	17	56	73	113.0	471660.0	185.0	-5573246.0
16	15	17	56	73	114.0	686588.0	2811.0	-5574036.0
16	15	17	56	74	115.0	751406.0	4131.0	-5573304.0
16	15	17	56	74	116.0	734813.0	4466.0	-5572762.0
16	15	17	56	74	117.0	646549.0	5162.0	-5574013.0
16	15	17	56	74	118.0	468837.0	5755.0	-5573994.0
16	15	17	56	75	119.0	188891.0	6058.0	-5573053.0
16	15	17	56	75	120.0	-133997.0	7359.0	-5572631.0
16	15	17	56	76	121.0	-358886.0	8276.0	-5573706.0
16	15	17	56	76	122.0	-396608.0	8943.0	-5573412.0
16	15	17	56	76	123.0	-312199.0	8925.0	-5572611.0
16	15	17	56	77	124.0	-128171.0	8991.0	-5573449.0
16	15	17	56	77	125.0	96088.0	9386.0	-5574346.0
16	15	17	56	77	126.0	237928.0	9857.0	-5573607.0
16	15	17	56	77	128.0	93546.0	11101.0	-5573495.0
16	15	17	56	78	129.0	-56369.0	10754.0	-5574300.0
16	15	17	56	78	130.0	-105266.0	9235.0	-5573565.0
16	15	17	56	78	131.0	-43089.0	9469.0	-5572628.0
16	15	17	56	79	132.0	70834.0	10119.0	-5573193.0
16	15	17	56	79	133.0	185954.0	10143.0	-5574029.0
16	15	17	56	79	134.0	278676.0	10267.0	-5573331.0
16	15	17	56	80	135.0	318324.0	10759.0	-5572563.0
16	15	17	56	80	136.0	286954.0	12289.0	-5573733.0
16	15	17	56	80	137.0	190534.0	14548.0	-5574099.0
16	15	17	56	80	138.0	72226.0	15731.0	-5573291.0
16	15	17	56	135	139.0	-34749.0	16259.0	-5572678.0
16	15	17	56	135	140.0	-110430.0	16489.0	-5573522.0
16	15	17	56	136	141.0	-141955.0	16573.0	-5573183.0
16	15	17	56	136	142.0	-142945.0	17474.0	-5572791.0
16	15	17	56	136	143.0	-121825.0	17913.0	-5574002.0
16	15	17	56	137	144.0	-88378.0	18207.0	-5573904.0
16	15	17	56	137	145.0	-35466.0	18493.0	-5572984.0
16	15	17	56	137	146.0	24489.0	18800.0	-5572805.0
16	15	17	56	138	147.0	68291.0	19331.0	-5574091.0
16	15	17	56	138	148.0	93450.0	19368.0	-5573794.0
16	15	17	56	138	149.0	90936.0	19777.0	-5572852.0
16	15	17	56	138	151.0	65830.0	20119.0	-5574147.0
16	15	17	56	139	152.0	65682.0	17564.0	-5573862.0
16	15	17	56	139	153.0	65684.0	16805.0	-5572922.0
16	15	17	56	139	154.0	66484.0	16330.0	-5573182.0
16	15	17	56	140	155.0	74397.0	16611.0	-5574298.0
16	15	17	56	140	156.0	98588.0	16229.0	-5573689.0
16	15	17	56	140	157.0	132666.0	16061.0	-5572886.0
16	15	17	56	141	158.0	166814.0	16652.0	-5573894.0
16	15	17	56	141	159.0	188946.0	18779.0	-5574465.0
16	15	17	56	141	160.0	197391.0	19315.0	-5573651.0
16	15	17	56	142	161.0	209116.0	19398.0	-5572891.0
16	15	17	56	142	162.0	214560.0	19852.0	-5573735.0
16	15	17	56	142	163.0	217566.0	20214.0	-5573943.0
16	15	17	56	143	164.0	222942.0	20496.0	-5573070.0
16	15	17	56	143	165.0	221614.0	20631.0	-5572837.0
16	15	17	56	143	166.0	207424.0	20251.0	-5574174.0
16	15	17	56	143	167.0	181841.0	20063.0	-5573834.0
16	15	17	56	144	168.0	163284.0	20218.0	-5572918.0
16	15	17	56	144	169.0	151460.0	20404.0	-5573165.0
16	15	17	56	144	170.0	150138.0	20625.0	-5574546.0
16	15	17	56	145	171.0	147569.0	20849.0	-5574039.0
16	15	17	56	145	173.0	124773.0	20961.0	-5574186.0
16	15	17	56	145	174.0	92099.0	20261.0	-5574662.0
16	15	17	56	146	175.0	61862.0	19358.0	-5573882.0
16	15	17	56	146	176.0	45959.0	19864.0	-5573081.0
16	15	17	56	146	177.0	38813.0	20604.0	-5574045.0
16	15	17	56	147	178.0	31933.0	21897.0	-5574468.0
16	15	17	56	147	179.0	29548.0	23268.0	-5573653.0
16	15	17	56	209	180.0	25318.0	24802.0	-5572841.0
16	15	17	56	209	181.0	21323.0	27920.0	-5573836.0
16	15	17	56	209	182.0	18329.0	32694.0	-5574297.0
16	15	17	56	210	183.0	13237.0	35981.0	-5573477.0
16	15	17	56	210	184.0	12621.0	39204.0	-5572722.0
16	15	17	56	210	185.0	7348.0	43521.0	-5573429.0
16	15	17	56	211	186.0	2151.0	47793.0	-5573377.0
16	15	17	56	211	187.0	-4815.0	53160.0	-5572712.0
16	15	17	56	211	188.0	-22836.0	58408.0	-5573607.0
16	15	17	56	212	189.0	-39997.0	63446.0	-5573974.0
16	15	17	56	212	190.0	-35366.0	69196.0	-5573057.0
16	15	17	56	212	191.0	-23603.0	75450.0	-5572732.0
16	15	17	56	213	192.0	-14003.0	81789.0	-5573907.0
16	15	17	56	213	193.0	-16324.0	87867.0	-5573687.0
16	15	17	56	213	194.0	-26739.0	93826.0	-5572741.0
16	15	17	56	214	196.0	-14221.0	106137.0	-5573807.0
16	15	17	56	214	197.0	3815.0	110748.0	-5573475.0
16	15	17	56	214	198.0	13909.0	116140.0	-5572569.0
16	15	17	56	214	199.0	8686.0	121713.0	-5572426.0
16	15	17	56	215	200.0	-4269.0	127269.0	-5573611.0
16	15	17	56	215	201.0	-20286.0	131908.0	-5573124.0
16	15	17	56	287	202.0	-34013.0	132059.0	-5572327.0
16	15	17	56	287	203.0	-40814.0	132311.0	-5573024.0
16	15	17	56	288	204.0	-41446.0	135066.0	-5573561.0
16	15	17	56	288	205.0	-45634.0	137379.0	-5572751.0
16	15	17	56	288	206.0	-49575.0	139958.0	-5571995.0
16	15	17	56	289	207.0	-56042.0	143451.0	-5572770.0
16	15	17	56	289	208.0	-61525.0	147789.0	-5573149.0
16	15	17	56	289	209.0	-61208.0	151691.0	-5572282.0
16	15	17	56	290	210.0	-61152.0	155673.0	-5571927.0
16	15	17	56	290	211.0	-56170.0	159522.0	-5573269.0
16	15	17	56	290	212.0	-37745.0	163058.0	-5573069.0
16	15	17	56	290	213.0	-11147.0	166631.0	-5572151.0
16	15	17	56	291	214.0	12365.0	170589.0	-5571985.0
16	15	17	56	291	215.0	26198.0	174012.0	-5573454.0
16	15	17	56	292	216.0	29489.0	176657.0	-5573176.0
16	15	17	56	292	241.0	103258.0	159134.0	-5573631.0
16	15	17	56	292	242.0	92698.0	153323.0	-5573846.0
16	15	17	56	292	243.0	85017.0	148770.0	-5572927.0
16	15	17	56	293	244.0	78389.0	144727.0	-5572357.0
16	15	17	56	293	245.0	78818.0	140084.0	-5573548.0
16	15	17	56	293	246.0	83471.0	135575.0	-5573704.0
16	15	17	56	377	247.0	94341.0	131388.0	-5572792.0
16	15	17	56	377	248.0	104214.0	127403.0	-5572254.0
16	15	17	56	377	249.0	113631.0	124719.0	-5573449.0
16	15	17	56	378	250.0	123343.0	120629.0	-5573451.0
16	15	17	56	378	251.0	123215.0	116506.0	-5572595.0
16	15	17	56	378	252.0	114441.0	111895.0	-5572784.0
16	15	17	56	379	253.0	101912.0	107314.0	-5573732.0
16	15	17	56	379	254.0	78173.0	103339.0	-5573074.0
16	15	17	56	379	255.0	45924.0	98396.0	-5572253.0
16	15	17	56	380	0.0	-6687.0	94117.0	-5572486.0
16	15	17	56	380	1.0	-113121.0	90174.0	-5572817.0
16	15	17	56	380	2.0	-321735.0	85808.0	-5572031.0
16	15	17	56	381	3.0	-515053.0	81912.0	-5571783.0
16	15	17	56	381	4.0	-383303.0	79704.0	-5573018.0
16	15	17	56	381	5.0	23389.0	81644.0	-5572566.0
16	15	17	56	381	7.0	604113.0	83780.0	-5572376.0
16	15	17	56	382	8.0	530628.0	81541.0	-5573384.0
16	15	17	56	382	9.0	297621.0	78855.0	-5572634.0
16	15	17	56	382	10.0	74569.0	76071.0	-5571876.0
16	15	17	56	383	11.0	-90130.0	72958.0	-5572914.0
16	15	17	56	383	12.0	-195120.0	69430.0	-5573291.0
16	15	17	56	383	13.0	-247584.0	65833.0	-5572459.0
16	15	17	56	384	14.0	-270154.0	62508.0	-5571831.0
16	15	17	56	384	15.0	-253636.0	59132.0	-5573144.0
16	15	17	56	384	16.0	-220819.0	54388.0	-5573267.0
16	15	17	56	385	17.0	-162872.0	50114.0	-5572442.0
16	15	17	56	385	18.0	-69137.0	46086.0	-5572067.0
16	15	17	56	385	19.0	41252.0	40841.0	-5573552.0
16	15	17	56	386	20.0	140524.0	36589.0	-5573271.0
16	15	17	56	386	21.0	215688.0	31794.0	-5572484.0
16	15	17	56	386	22.0	258004.0	27069.0	-5572124.0
16	15	17	56	386	23.0	263540.0	22276.0	-5573590.0
16	15	17	56	387	24.0	224058.0	17914.0	-5573260.0
16	15	17	56	387	25.0	148516.0	13384.0	-5572445.0
16	15	17	56	387	29.0	-86346.0	-3892.0	-5572624.0
16	15	17	56	388	30.0	-86660.0	-8734.0	-5573568.0
16	15	17	56	388	31.0	-75271.0	-14556.0	-5573969.0
16	15	17	56	388	32.0	-71397.0	-19156.0	-5573059.0
16	15	17	56	388	33.0	-59837.0	-23388.0	-5572521.0
16	15	17	56	389	34.0	-44516.0	-27700.0	-5573727.0
16	15	17	56	389	35.0	-18260.0	-32323.0	-5573877.0
16	15	17	56	464	36.0	-10289.0	-36618.0	-5572980.0
16	15	17	56	465	37.0	-6502.0	-40097.0	-5572436.0
16	15	17	56	465	38.0	-16197.0	-41565.0	-5573500.0
16	15	17	56	465	39.0	-14174.0	-44999.0	-5573605.0
16	15	17	56	466	40.0	-25362.0	-49024.0	-5572732.0
16	15	17	56	466	41.0	-34894.0	-52722.0	-5572416.0
16	15	17	56	466	42.0	-50426.0	-55708.0	-5573774.0
16	15	17	56	467	43.0	-60901.0	-59026.0	-5573567.0
16	15	17	56	467	44.0	-65756.0	-63154.0	-5572714.0
16	15	17	56	467	45.0	-76918.0	-66958.0	-5573117.0
16	15	17	56	468	46.0	-72246.0	-70881.0	-5574092.0
16	15	17	56	468	47.0	-78511.0	-74400.0	-5573420.0
16	15	17	56	468	48.0	-62740.0	-77567.0	-5572600.0
16	15	17	56	468	49.0	-53724.0	-81062.0	-5573382.0
16	15	17	56	469	50.0	-34164.0	-84539.0	-5573979.0
16	15	17	56	469	52.0	-8111.0	-91473.0	-5572374.0
16	15	17	56	469	53.0	6931.0	-96188.0	-5573367.0
16	15	17	56	470	54.0	10144.0	-100162.0	-5574016.0
16	15	17	56	470	55.0	15507.0	-102896.0	-5573181.0
16	15	17	56	470	56.0	12827.0	-105676.0	-5572635.0
16	15	17	56	471	57.0	17889.0	-108458.0	-5573857.0
16	15	17	56	471	58.0	19951.0	-110954.0	-5574013.0
16	15	17	56	471	59.0	22732.0	-113134.0	-5573122.0
16	15	17	56	472	60.0	31005.0	-113262.0	-5572860.0
16	15	17	56	472	61.0	43989.0	-114243.0	-5574059.0
16	15	17	56	472	62.0	58426.0	-116419.0	-5573710.0
16	15	17	56	473	63.0	45837.0	-117583.0	-5572785.0
16	15	17	56	473	64.0	34993.0	-118412.0	-5572963.0
16	15	17	56	473	65.0	23621.0	-120002.0	-5574186.0
16	15	17	56	473	66.0	4941.0	-120814.0	-5573638.0
16	15	17	56	474	67.0	-12010.0	-122114.0	-5572688.0
16	15	17	56	474	68.0	-38352.0	-123187.0	-5572861.0
16	15	17	56	474	69.0	-49553.0	-123696.0	-5574022.0
16	15	17	56	475	70.0	-72845.0	-124792.0	-5573463.0
16	15	17	56	475	71.0	-87414.0	-125191.0	-5572561.0
16	15	17	56	475	72.0	-98675.0	-125149.0	-5573006.0
16	15	17	56	476	74.0	-101759.0	-125302.0	-5573287.0
16	15	17	56	476	75.0	-97841.0	-126212.0	-5572500.0
16	15	17	56	476	76.0	-89306.0	-127812.0	-5573171.0
16	15	17	56	476	77.0	-85041.0	-128204.0	-5573129.0
16	15	17	56	477	78.0	-81539.0	-128240.0	-5572356.0
16	15	17	56	477	79.0	-83829.0	-128231.0	-5572741.0
16	15	17	56	477	80.0	-97359.0	-127802.0	-5573915.0
16	15	17	56	552	81.0	-105092.0	-127332.0	-5573140.0
16	15	17	56	553	82.0	-115194.0	-126091.0	-5572317.0
16	15	17	56	553	83.0	-121768.0	-123345.0	-5572695.0
16	15	17	56	553	84.0	-120876.0	-121791.0	-5573911.0
16	15	17	56	554	85.0	-113702.0	-120292.0	-5573176.0
16	15	17	56	554	86.0	-95805.0	-118911.0	-5572501.0
16	15	17	56	554	87.0	-76243.0	-117438.0	-5573524.0
16	15	17	56	555	88.0	-49992.0	-116300.0	-5573941.0
16	15	17	56	555	89.0	-32725.0	-114494.0	-5573044.0
16	15	17	56	555	90.0	-20484.0	-112781.0	-5572615.0
16	15	17	56	556	91.0	-14775.0	-111521.0	-5573968.0
16	15	17	56	556	92.0	-13734.0	-109987.0	-5573873.0
16	15	17	56	556	93.0	-16914.0	-108017.0	-5572987.0
16	15	17	56	557	94.0	-28010.0	-106891.0	-5572685.0
16	15	17	56	557	95.0	-37034.0	-105744.0	-5573901.0
16	15	17	56	557	97.0	-50949.0	-102629.0	-5572637.0
16	15	17	56	558	98.0	-53995.0	-102321.0	-5573069.0
16	15	17	56	558	99.0	-53428.0	-101973.0	-5574222.0
16	15	17	56	558	100.0	-47631.0	-100479.0	-5573492.0
16	15	17	56	558	101.0	-46282.0	-98673.0	-5572686.0
16	15	17	56	559	102.0	-48347.0	-97061.0	-5572566.0
16	15	17	56	559	103.0	-47948.0	-95416.0	-5573428.0
16	15	17	56	559	104.0	-42137.0	-93481.0	-5572787.0
16	15	17	56	560	105.0	-37339.0	-90322.0	-5572720.0
16	15	17	56	560	106.0	-22983.0	-88037.0	-5574175.0
16	15	17	56	560	107.0	-6524.0	-86471.0	-5573756.0
16	15	17	56	560	108.0	11412.0	-84454.0	-5572925.0
16	15	17	56	563	109.0	24013.0	-82831.0	-5573140.0
16	15	17	56	563	110.0	24687.0	-81391.0	-5574506.0
16	15	17	56	564	111.0	32573.0	-80021.0	-5573934.0
16	15	17	56	564	112.0	32224.0	-78054.0	-5573048.0
16	15	17	56	564	113.0	34778.0	-76664.0	-5573501.0
16	15	17	56	565	114.0	47874.0	-75989.0	-5574529.0
16	15	17	56	565	115.0	49680.0	-75071.0	-5573822.0
16	15	17	56	566	116.0	61123.0	-74022.0	-5572922.0
16	15	17	56	566	117.0	57794.0	-73056.0	-5573481.0
16	15	17	56	566	119.0	43283.0	-70733.0	-5573629.0
16	15	17	56	567	120.0	21001.0	-70493.0	-5572768.0
16	15	17	56	567	121.0	10551.0	-71761.0	-5573514.0
16	15	17	56	567	122.0	5944.0	-71424.0	-5574284.0
16	15	17	56	567	123.0	10196.0	-70685.0	-5573557.0
16	15	17	56	568	124.0	6509.0	-70128.0	-5572891.0
16	15	17	56	569	125.0	-498.0	-69301.0	-5574198.0
16	15	17	56	657	126.0	-1701.0	-68680.0	-5574286.0
16	15	17	56	658	127.0	-9121.0	-67344.0	-5573456.0
16	15	17	56	658	128.0	-13324.0	-64647.0	-5573009.0
16	15	17	56	659	129.0	-29574.0	-63734.0	-5574381.0
16	15	17	56	659	130.0	-52437.0	-62808.0	-5574057.0
16	15	17	56	660	131.0	-66716.0	-61937.0	-5573251.0
16	15	17	56	660	132.0	-68701.0	-61481.0	-5572891.0
16	15	17	56	660	133.0	-57776.0	-60999.0	-5574220.0
16	15	17	56	661	134.0	-50821.0	-60416.0	-5573764.0
16	15	17	56	662	135.0	-53091.0	-59982.0	-5572998.0
16	15	17	56	662	136.0	-44136.0	-59382.0	-5573626.0
16	15	17	56	662	137.0	-26172.0	-59182.0	-5574475.0
16	15	17	56	663	138.0	-4870.0	-58844.0	-5573633.0
16	15	17	56	663	139.0	15279.0	-58508.0	-5572949.0
16	15	17	56	664	140.0	34193.0	-58276.0	-5573895.0
16	15	17	56	664	142.0	52352.0	-57788.0	-5573615.0
16	15	17	56	665	143.0	59688.0	-59384.0	-5572934.0
16	15	17	56	665	144.0	60616.0	-60375.0	-5574054.0
16	15	17	56	666	145.0	63158.0	-59879.0	-5574570.0
16	15	17	56	666	146.0	62921.0	-59559.0	-5573700.0
16	15	17	56	667	147.0	59219.0	-58722.0	-5573119.0
16	15	17	56	667	148.0	58219.0	-56689.0	-5574599.0
16	15	17	56	668	149.0	52307.0	-55512.0	-5574827.0
16	15	17	56	668	150.0	47902.0	-54991.0	-5573966.0
16	15	17	56	669	151.0	38481.0	-54126.0	-5573279.0
16	15	17	56	669	152.0	29666.0	-53699.0	-5574505.0
16	15	17	56	670	153.0	20614.0	-52927.0	-5574755.0
16	15	17	56	670	154.0	7666.0	-52443.0	-5573900.0
16	15	17	56	671	155.0	-2407.0	-51791.0	-5573531.0
16	15	17	56	671	156.0	-8440.0	-51616.0	-5575079.0
16	15	17	56	672	165.0	-83772.0	-46677.0	-5573786.0
16	15	17	56	672	166.0	-92376.0	-48044.0	-5573574.0
16	15	17	56	673	167.0	-98054.0	-48142.0	-5574859.0
16	15	17	56	673	168.0	-101056.0	-47726.0	-5574524.0
16	15	17	56	674	169.0	-101573.0	-47015.0	-5573589.0
16	15	17	56	674	170.0	-110479.0	-46485.0	-5573295.0
16	15	17	56	748	171.0	-121535.0	-45921.0	-5574641.0
16	15	17	56	749	172.0	-140592.0	-45033.0	-5574469.0
16	15	17	56	749	173.0	-147269.0	-42911.0	-5573567.0
16	15	17	56	750	174.0	-147497.0	-41640.0	-5574053.0
16	15	17	56	750	175.0	-141059.0	-40506.0	-5575064.0
16	15	17	56	750	176.0	-126909.0	-39792.0	-5574407.0
16	15	17	56	751	177.0	-120941.0	-39349.0	-5573628.0
16	15	17	56	751	178.0	-111717.0	-38327.0	-5574806.0
16	15	17	56	751	179.0	-105567.0	-37131.0	-5575197.0
16	15	17	56	752	180.0	-91309.0	-36454.0	-5574421.0
16	15	17	56	752	181.0	-73447.0	-35554.0	-5573721.0
16	15	17	56	752	182.0	-65472.0	-34943.0	-5574579.0
16	15	17	56	753	183.0	-51744.0	-34204.0	-5574460.0
16	15	17	56	753	184.0	-52647.0	-33374.0	-5573739.0
16	15	17	56	753	185.0	-45819.0	-33152.0	-5574626.0
16	15	17	56	753	187.0	-30927.0	-31981.0	-5574714.0
16	15	17	56	754	188.0	-19075.0	-32798.0	-5574086.0
16	15	17	56	754	189.0	-17431.0	-32612.0	-5575089.0
16	15	17	56	754	190.0	-10177.0	-32299.0	-5575551.0
16	15	17	56	754	191.0	-5034.0	-32001.0	-5574645.0
16	15	17	56	755	192.0	1195.0	-31321.0	-5574151.0
16	15	17	56	755	193.0	1369.0	-30548.0	-5575231.0
16	15	17	56	755	194.0	-3167.0	-29218.0	-5575193.0
16	15	17	56	755	195.0	11344.0	-26828.0	-5574205.0
16	15	17	56	756	196.0	29378.0	-25761.0	-5573825.0
16	15	17	56	756	197.0	41361.0	-24664.0	-5575052.0
16	15	17	56	756	198.0	42229.0	-23745.0	-5574799.0
16	15	17	56	757	199.0	29644.0	-23446.0	-5573901.0
16	15	17	56	757	200.0	26379.0	-22252.0	-5573882.0
16	15	17	56	757	201.0	24530.0	-21177.0	-5575107.0
16	15	17	56	758	202.0	19274.0	-19892.0	-5574554.0
16	15	17	56	758	203.0	25025.0	-18809.0	-5573729.0
16	15	17	56	758	204.0	26785.0	-18079.0	-5574179.0
16	15	17	56	759	205.0	33366.0	-17541.0	-5575294.0
16	15	17	56	759	206.0	30267.0	-16896.0	-5574571.0
16	15	17	56	759	207.0	11343.0	-16125.0	-5573738.0
16	15	17	56	759	209.0	-39492.0	-14603.0	-5574686.0
16	15	17	56	760	210.0	-63713.0	-14807.0	-5573976.0
16	15	17	56	760	211.0	-84880.0	-15363.0	-5573820.0
16	15	17	56	760	212.0	-104542.0	-15175.0	-5575206.0
16	15	17	56	760	213.0	-102239.0	-14674.0	-5574787.0
16	15	17	56	761	214.0	-99127.0	-14417.0	-5573939.0
16	15	17	56	761	215.0	-87964.0	-14123.0	-5574465.0
16	15	17	56	761	216.0	-71315.0	-13346.0	-5575339.0
16	15	17	56	762	217.0	-70116.0	-11999.0	-5574616.0
16	15	17	56	762	218.0	-65006.0	-9796.0	-5573790.0
16	15	17	56	838	219.0	-64935.0	-8434.0	-5574601.0
16	15	17	56	838	220.0	-66123.0	-7123.0	-5575006.0
16	15	17	56	839	221.0	-58952.0	-6513.0	-5574212.0
16	15	17	56	839	222.0	-50872.0	-5182.0	-5573521.0
16	15	17	56	839	223.0	-30533.0	-4535.0	-5574729.0
16	15	17	56	840	224.0	-13664.0	-4196.0	-5574942.0
16	15	17	56	840	225.0	8054.0	-3271.0	-5574114.0
16	15	17	56	840	226.0	30298.0	-2609.0	-5573397.0
16	15	17	56	841	227.0	58986.0	-1604.0	-5574690.0
16	15	17	56	842	228.0	85769.0	-433.0	-5574946.0
16	15	17	56	843	229.0	105671.0	508.0	-5574157.0
16	15	17	56	843	230.0	112896.0	1119.0	-5573679.0
16	15	17	56	844	232.0	117360.0	2042.0	-5574899.0
16	15	17	56	844	233.0	116353.0	1090.0	-5574100.0
16	15	17	56	844	234.0	120245.0	1031.0	-5573495.0
16	15	17	56	845	235.0	129607.0	1009.0	-5574370.0
16	15	17	56	845	236.0	135244.0	1252.0	-5574027.0
16	15	17	56	846	237.0	145528.0	1866.0	-5573624.0
16	15	17	56	846	238.0	155044.0	2359.0	-5574889.0
16	15	17	56	847	239.0	155583.0	3400.0	-5574806.0
16	15	17	56	847	240.0	150070.0	5549.0	-5573880.0
16	15	17	56	848	241.0	135652.0	6688.0	-5573653.0
16	15	17	56	849	242.0	109444.0	7801.0	-5574851.0
16	15	17	56	849	243.0	72663.0	8141.0	-5574511.0
16	15	17	56	850	244.0	31379.0	8992.0	-5573570.0
16	15	17	56	850	245.0	-8873.0	9951.0	-5573531.0
16	15	17	56	850	246.0	-16115.0	10759.0	-5574931.0
16	15	17	56	851	247.0	27451.0	11034.0	-5574576.0
16	15	17	56	852	248.0	103817.0	12214.0	-5573672.0
16	15	17	56	852	249.0	188239.0	13236.0	-5573598.0
16	15	17	56	853	250.0	246608.0	13696.0	-5574884.0
16	15	17	56	853	251.0	246415.0	13786.0	-5574487.0
16	15	17	56	853	252.0	196318.0	13696.0	-5573594.0
16	15	17	56	854	21.0	-7806.0	23139.0	-5574966.0
16	15	17	56	854	22.0	-150142.0	21954.0	-5574156.0
16	15	17	56	854	23.0	-233699.0	21333.0	-5573987.0
16	15	17	56	855	24.0	-186837.0	21423.0	-5575411.0
16	15	17	56	855	25.0	-21695.0	21735.0	-5574956.0
16	15	17	56	927	26.0	162684.0	21954.0	-5574184.0
16	15	17	56	927	27.0	317731.0	22211.0	-5573939.0
16	15	17	56	928	28.0	408965.0	23144.0	-5574779.0
16	15	17	56	928	29.0	436883.0	25572.0	-5574162.0
16	15	17	56	928	30.0	382381.0	25850.0	-5574035.0
16	15	17	56	928	31.0	252083.0	25889.0	-5575327.0
16	15	17	56	929	32.0	104768.0	26455.0	-5574913.0
16	15	17	56	929	33.0	-33304.0	27058.0	-5574001.0
16	15	17	56	929	34.0	-101202.0	27238.0	-5574262.0
16	15	17	56	930	35.0	-117023.0	27646.0	-5575322.0
16	15	17	56	930	36.0	-84467.0	28321.0	-5574716.0
16	15	17	56	930	37.0	-51583.0	28897.0	-5573804.0
16	15	17	56	931	38.0	-15708.0	28367.0	-5573952.0
16	15	17	56	931	39.0	9169.0	28571.0	-5575002.0
16	15	17	56	931	40.0	41003.0	29232.0	-5574443.0
16	15	17	56	932	41.0	58226.0	29661.0	-5573552.0
16	15	17	56	932	43.0	53626.0	30270.0	-5574974.0
16	15	17	56	932	44.0	35075.0	28595.0	-5574281.0
16	15	17	56	933	45.0	17254.0	27093.0	-5573544.0
16	15	17	56	933	46.0	12699.0	26471.0	-5574748.0
16	15	17	56	933	47.0	10026.0	26041.0	-5574969.0
16	15	17	56	934	48.0	23481.0	26288.0	-5574182.0
16	15	17	57	20	49.0	38303.0	26018.0	-5573475.0
16	15	17	57	21	50.0	52845.0	25819.0	-5574239.0
16	15	17	57	21	51.0	77136.0	27169.0	-5573921.0
16	15	17	57	21	52.0	91617.0	27886.0	-5573221.0
16	15	17	57	22	53.0	88090.0	28178.0	-5573969.0
16	15	17	57	22	54.0	69765.0	28596.0	-5574452.0
16	15	17	57	22	55.0	61281.0	28726.0	-5573591.0
16	15	17	57	22	56.0	51976.0	28789.0	-5573133.0
16	15	17	57	23	57.0	61238.0	29165.0	-5574384.0
16	15	17	57	23	58.0	78005.0	29239.0	-5574434.0
16	15	17	57	23	59.0	104302.0	29281.0	-5573522.0
16	15	17	57	24	60.0	123958.0	28997.0	-5573592.0
16	15	17	57	24	61.0	129486.0	29129.0	-5574911.0
16	15	17	57	24	62.0	134278.0	29357.0	-5574462.0
16	15	17	57	24	63.0	124185.0	29464.0	-5573548.0
16	15	17	57	24	66.0	85414.0	29392.0	-5574231.0
16	15	17	57	25	67.0	61420.0	27981.0	-5573336.0
16	15	17	57	25	68.0	44000.0	27880.0	-5573948.0
16	15	17	57	25	69.0	21723.0	29084.0	-5574676.0
16	15	17	57	25	70.0	-7092.0	29873.0	-5573888.0
16	15	17	57	26	71.0	-23439.0	31288.0	-5573109.0
16	15	17	57	26	72.0	-37489.0	33066.0	-5573876.0
16	15	17	57	26	73.0	-42811.0	35795.0	-5574516.0
16	15	17	57	26	74.0	-55486.0	39943.0	-5573671.0
16	15	17	57	27	75.0	-80704.0	43269.0	-5573417.0
16	15	17	57	27	76.0	-98362.0	46828.0	-5575126.0
16	15	17	57	27	77.0	-114529.0	50729.0	-5574976.0
16	15	17	57	27	78.0	-103690.0	54788.0	-5574113.0
16	15	17	57	28	79.0	-84731.0	59235.0	-5574222.0
16	15	17	57	28	80.0	-63472.0	64563.0	-5575376.0
16	15	17	57	28	81.0	-56886.0	69931.0	-5574783.0
16	15	17	57	28	82.0	-61314.0	76019.0	-5573872.0
16	15	17	57	29	83.0	-69102.0	82221.0	-5573904.0
16	15	17	57	29	84.0	-81341.0	88553.0	-5575259.0
16	15	17	57	29	85.0	-107596.0	95534.0	-5574760.0
16	15	17	57	29	86.0	-125466.0	102043.0	-5573858.0
16	15	17	57	30	88.0	-125617.0	115912.0	-5575221.0
16	15	17	57	30	89.0	-110360.0	121108.0	-5574601.0
16	15	17	57	30	90.0	-99737.0	126412.0	-5573761.0
16	15	17	57	30	91.0	-86780.0	132433.0	-5574584.0
16	15	17	57	31	92.0	-84183.0	133893.0	-5575164.0
16	15	17	57	31	93.0	-73064.0	133720.0	-5574409.0
16	15	17	57	31	94.0	-54236.0	135286.0	-5573620.0
16	15	17	57	32	95.0	-41036.0	138160.0	-5574722.0
16	15	17	57	32	96.0	-12517.0	143438.0	-5575292.0
16	15	17	57	32	97.0	12928.0	148291.0	-5574514.0
16	15	17	57	33	98.0	29162.0	152884.0	-5573906.0
16	15	17	57	114	99.0	54083.0	157867.0	-5575428.0
16	15	17	57	114	100.0	66325.0	163638.0	-5575419.0
16	15	17	57	115	101.0	84326.0	168932.0	-5574612.0
16	15	17	57	115	102.0	90711.0	174134.0	-5573916.0
16	15	17	57	115	103.0	85556.0	179711.0	-5574902.0
16	15	17	57	116	104.0	86690.0	184852.0	-5574879.0
16	15	17	57	116	105.0	71748.0	189536.0	-5574277.0
16	15	17	57	117	106.0	65857.0	194161.0	-5575344.0
16	15	17	57	117	107.0	56305.0	198313.0	-5575658.0
16	15	17	57	117	108.0	39018.0	201724.0	-5574756.0
16	15	17	57	118	110.0	12461.0	208400.0	-5575743.0
16	15	17	57	118	111.0	3803.0	210091.0	-5575526.0
16	15	17	57	118	112.0	-4792.0	210617.0	-5574593.0
16	15	17	57	119	113.0	-15020.0	212206.0	-5574211.0
16	15	17	57	119	114.0	-19786.0	213708.0	-5575584.0
16	15	17	57	119	115.0	-28111.0	215136.0	-5575480.0
16	15	17	57	120	116.0	-32269.0	217936.0	-5574588.0
16	15	17	57	120	117.0	-22677.0	219378.0	-5574279.0
16	15	17	57	120	118.0	-19264.0	219672.0	-5575815.0
16	15	17	57	120	119.0	-4668.0	219812.0	-5575619.0
16	15	17	57	121	120.0	17698.0	218981.0	-5574714.0
16	15	17	57	121	121.0	38348.0	218237.0	-5574559.0
16	15	17	57	121	122.0	58189.0	216896.0	-5575914.0
16	15	17	57	122	133.0	122197.0	184917.0	-5576009.0
16	15	17	57	122	134.0	130444.0	179377.0	-5575429.0
16	15	17	57	122	135.0	136099.0	173629.0	-5574569.0
16	15	17	57	123	136.0	139949.0	168652.0	-5574948.0
16	15	17	57	123	137.0	148059.0	163964.0	-5576191.0
16	15	17	57	123	138.0	159981.0	158986.0	-5575574.0
16	15	17	57	124	139.0	165718.0	154052.0	-5574816.0
16	15	17	57	124	140.0	165536.0	149034.0	-5575589.0
16	15	17	57	124	141.0	160216.0	145704.0	-5576222.0
16	15	17	57	125	142.0	157803.0	141566.0	-5575451.0
16	15	17	57	205	143.0	158063.0	136476.0	-5574725.0
16	15	17	57	205	144.0	157104.0	132036.0	-5575771.0
16	15	17	57	206	145.0	148488.0	126906.0	-5576122.0
16	15	17	57	206	146.0	130218.0	121686.0	-5575299.0
16	15	17	57	206	147.0	104518.0	116201.0	-5574555.0
16	15	17	57	207	148.0	64937.0	110863.0	-5575747.0
16	15	17	57	207	149.0	7209.0	105551.0	-5575956.0
16	15	17	57	207	150.0	-87047.0	99929.0	-5575155.0
16	15	17	57	208	151.0	-242437.0	95858.0	-5574598.0
16	15	17	57	208	152.0	-497610.0	95649.0	-5575533.0
16	15	17	57	208	153.0	-657678.0	97439.0	-5575143.0
16	15	17	57	209	155.0	-78182.0	96035.0	-5576182.0
16	15	17	57	209	156.0	248668.0	93563.0	-5576151.0
16	15	17	57	209	157.0	372948.0	88884.0	-5575224.0
16	15	17	57	209	158.0	218865.0	84924.0	-5575020.0
16	15	17	57	210	159.0	-58204.0	80516.0	-5576309.0
16	15	17	57	210	160.0	-289932.0	76100.0	-5575989.0
16	15	17	57	210	161.0	-403041.0	71578.0	-5575054.0
16	15	17	57	211	162.0	-397190.0	66326.0	-5574997.0
16	15	17	57	211	163.0	-329664.0	61908.0	-5576305.0
16	15	17	57	212	164.0	-273601.0	58441.0	-5575914.0
16	15	17	57	212	165.0	-224052.0	54263.0	-5575003.0
16	15	17	57	212	166.0	-136070.0	48964.0	-5574947.0
16	15	17	57	213	167.0	-51644.0	43926.0	-5576376.0
16	15	17	57	213	168.0	20633.0	39316.0	-5575994.0
16	15	17	57	213	169.0	100584.0	33781.0	-5575164.0
16	15	17	57	214	170.0	175048.0	28887.0	-5575985.0
16	15	17	57	214	171.0	240298.0	24194.0	-5576939.0
16	15	17	57	215	172.0	263901.0	18889.0	-5576206.0
16	15	17	57	215	173.0	232948.0	14049.0	-5575422.0
16	15	17	57	215	174.0	162004.0	9728.0	-5576086.0
16	15	17	57	216	175.0	72612.0	4468.0	-5576399.0
16	15	17	57	216	176.0	-6061.0	-604.0	-5575664.0
16	15	17	57	216	178.0	-71591.0	-10014.0	-5577202.0
16	15	17	57	217	179.0	-67366.0	-15997.0	-5576348.0
16	15	17	57	217	180.0	-61239.0	-21431.0	-5575528.0
16	15	17	57	217	181.0	-53969.0	-26119.0	-5576167.0
16	15	17	57	218	182.0	-44494.0	-30601.0	-5576951.0
16	15	17	57	218	183.0	-33440.0	-34913.0	-5576161.0
16	15	17	57	218	184.0	-18101.0	-39176.0	-5575349.0
16	15	17	57	218	185.0	3546.0	-43018.0	-5576026.0
16	15	17	57	219	186.0	26296.0	-45484.0	-5576799.0
16	15	17	57	219	187.0	46032.0	-49016.0	-5576018.0
16	15	17	57	219	188.0	45363.0	-52551.0	-5575514.0
16	15	17	57	219	189.0	30114.0	-56880.0	-5576954.0
16	15	17	57	220	190.0	5539.0	-60872.0	-5577001.0
16	15	17	57	220	191.0	-18597.0	-64989.0	-5576144.0
16	15	17	57	220	192.0	-36409.0	-68622.0	-5575784.0
16	15	17	57	220	193.0	-44264.0	-72542.0	-5577267.0
16	15	17	57	221	194.0	-43067.0	-76150.0	-5577018.0
16	15	17	57	221	195.0	-35630.0	-79849.0	-5576154.0
16	15	17	57	221	196.0	-26193.0	-83244.0	-5575919.0
16	15	17	57	222	197.0	-28364.0	-86303.0	-5576826.0
16	15	17	57	222	198.0	-27701.0	-90164.0	-5576232.0
16	15	17	57	222	200.0	-17294.0	-97540.0	-5577055.0
16	15	17	57	222	201.0	-8878.0	-101857.0	-5577110.0
16	15	17	57	223	202.0	1814.0	-107106.0	-5576202.0
16	15	17	57	223	203.0	8580.0	-110697.0	-5575988.0
16	15	17	57	223	204.0	17992.0	-114041.0	-5577293.0
16	15	17	57	224	205.0	23704.0	-117551.0	-5576976.0
16	15	17	57	224	206.0	39757.0	-120571.0	-5576109.0
16	15	17	57	289	207.0	51357.0	-123217.0	-5576129.0
16	15	17	57	290	208.0	73534.0	-124977.0	-5577314.0
16	15	17	57	290	209.0	77526.0	-125601.0	-5576841.0
16	15	17	57	290	210.0	81341.0	-127229.0	-5575945.0
16	15	17	57	291	211.0	79664.0	-129311.0	-5576177.0
16	15	17	57	291	212.0	80906.0	-130919.0	-5577470.0
16	15	17	57	292	213.0	77875.0	-132437.0	-5576952.0
16	15	17	57	292	214.0	79721.0	-134433.0	-5576038.0
16	15	17	57	293	215.0	65404.0	-135697.0	-5576254.0
16	15	17	57	293	216.0	62212.0	-136859.0	-5577486.0
16	15	17	57	293	217.0	42818.0	-137890.0	-5576956.0
16	15	17	57	294	218.0	37577.0	-138669.0	-5576110.0
16	15	17	57	294	219.0	27351.0	-139809.0	-5576724.0
16	15	17	57	294	220.0	28376.0	-140309.0	-5577607.0
16	15	17	57	295	221.0	19693.0	-140734.0	-5576911.0
16	15	17	57	295	223.0	21575.0	-142068.0	-5577340.0
16	15	17	57	295	224.0	23928.0	-143778.0	-5577533.0
16	15	17	57	296	225.0	13241.0	-144641.0	-5576744.0
16	15	17	57	296	226.0	10333.0	-144819.0	-5575907.0
16	15	17	57	296	227.0	-2044.0	-144561.0	-5576366.0
16	15	17	57	297	228.0	-6356.0	-144094.0	-5576519.0
16	15	17	57	297	229.0	-21409.0	-143884.0	-5575769.0
16	15	17	57	297	230.0	-26370.0	-142526.0	-5576199.0
16	15	17	57	298	231.0	-43241.0	-140330.0	-5577069.0
16	15	17	57	298	232.0	-48601.0	-138923.0	-5576252.0
16	15	17	57	298	233.0	-56261.0	-137567.0	-5575495.0
16	15	17	57	299	234.0	-50045.0	-136201.0	-5576276.0
16	15	17	57	299	235.0	-51778.0	-134941.0	-5576972.0
16	15	17	57	300	236.0	-46871.0	-133327.0	-5576104.0
16	15	17	57	300	237.0	-53654.0	-131977.0	-5575631.0
16	15	17	57	300	238.0	-53471.0	-131090.0	-5576736.0
16	15	17	57	300	239.0	-57271.0	-128759.0	-5576546.0
16	15	17	57	301	240.0	-54935.0	-127164.0	-5575662.0
16	15	17	57	301	241.0	-46420.0	-124736.0	-5575572.0
16	15	17	57	302	242.0	-24396.0	-122769.0	-5577016.0
16	15	17	57	362	243.0	-7416.0	-121768.0	-5576528.0
16	15	17	57	363	245.0	14754.0	-118642.0	-5575543.0
16	15	17	57	363	246.0	16636.0	-117724.0	-5576889.0
16	15	17	57	363	247.0	7502.0	-118107.0	-5576373.0
16	15	17	57	363	248.0	7783.0	-116816.0	-5575524.0
16	15	17	57	364	249.0	-4037.0	-115114.0	-5575312.0
16	15	17	57	364	250.0	-13561.0	-113379.0	-5575937.0
16	15	17	57	364	251.0	-28427.0	-111924.0	-5575296.0
16	15	17	57	364	252.0	-37294.0	-110581.0	-5575419.0
16	15	17	57	441	253.0	-45127.0	-108039.0	-5576593.0
16	15	17	57	441	254.0	-49609.0	-104306.0	-5575994.0
16	15	17	57	442	255.0	-59736.0	-102422.0	-5575169.0
16	15	17	57	442	0.0	-60929.0	-100579.0	-5575754.0
16	15	17	57	442	1.0	-64252.0	-98688.0	-5576684.0
16	15	17	57	443	2.0	-61246.0	-97340.0	-5575966.0
16	15	17	57	443	3.0	-56133.0	-95723.0	-5575107.0
16	15	17	57	443	4.0	-47188.0	-94181.0	-5575969.0
16	15	17	57	444	5.0	-42060.0	-92263.0	-5576597.0
16	15	17	57	444	6.0	-32964.0	-90492.0	-5575839.0
16	15	17	57	444	7.0	-28339.0	-89401.0	-5575012.0
16	15	17	57	445	8.0	-22399.0	-87945.0	-5575947.0
16	15	17	57	445	9.0	-15184.0	-86617.0	-5576584.0
16	15	17	57	445	10.0	-362.0	-85401.0	-5575828.0
16	15	17	57	445	12.0	7664.0	-83302.0	-5576403.0
16	15	17	57	446	34.0	-12317.0	-67732.0	-5576397.0
16	15	17	57	446	35.0	-2938.0	-67864.0	-5576822.0
16	15	17	57	446	36.0	6847.0	-68619.0	-5576018.0
16	15	17	57	447	37.0	9028.0	-68416.0	-5575302.0
16	15	17	57	447	38.0	14413.0	-68121.0	-5576401.0
16	15	17	57	447	39.0	18550.0	-67831.0	-5576824.0
16	15	17	57	448	40.0	17530.0	-67414.0	-5575965.0
16	15	17	57	448	41.0	15354.0	-66659.0	-5575482.0
16	15	17	57	448	42.0	20611.0	-65133.0	-5576991.0
16	15	17	57	448	43.0	28560.0	-63010.0	-5577094.0
16	15	17	57	449	44.0	30497.0	-61934.0	-5576263.0
16	15	17	57	449	45.0	27750.0	-61534.0	-5576409.0
16	15	17	57	449	46.0	21643.0	-60549.0	-5577622.0
16	15	17	57	450	47.0	30018.0	-59910.0	-5577026.0
16	15	17	57	450	48.0	36944.0	-59914.0	-5576139.0
16	15	17	57	450	49.0	42334.0	-59152.0	-5576124.0
16	15	17	57	451	50.0	41783.0	-58159.0	-5577248.0
16	15	17	57	451	51.0	46103.0	-57639.0	-5576693.0
16	15	17	57	451	52.0	53759.0	-57196.0	-5575763.0
16	15	17	57	452	53.0	60105.0	-56671.0	-5576139.0
16	15	17	57	452	54.0	62789.0	-56094.0	-5577334.0
16	15	17	57	452	55.0	63984.0	-55405.0	-5576757.0
16	15	17	57	453	57.0	60482.0	-53668.0	-5576295.0
16	15	17	57	453	58.0	49528.0	-55067.0	-5577272.0
16	15	17	57	453	59.0	33067.0	-55342.0	-5576632.0
16	15	17	57	454	60.0	16023.0	-55046.0	-5575881.0
16	15	17	57	454	61.0	10778.0	-54692.0	-5577109.0
16	15	17	57	454	62.0	10463.0	-53876.0	-5577541.0
16	15	17	57	516	63.0	7578.0	-53099.0	-5576775.0
16	15	17	57	516	64.0	-6857.0	-52078.0	-5576184.0
16	15	17	57	517	65.0	-23419.0	-49736.0	-5577562.0
16	15	17	57	517	66.0	-41670.0	-48769.0	-5577481.0
16	15	17	57	517	67.0	-52408.0	-47731.0	-5576644.0
16	15	17	57	518	68.0	-59846.0	-46728.0	-5575941.0
16	15	17	57	518	69.0	-60676.0	-46315.0	-5577285.0
16	15	17	57	518	70.0	-57446.0	-45331.0	-5577627.0
16	15	17	57	518	71.0	-51393.0	-44368.0	-5576793.0
16	15	17	57	519	72.0	-49059.0	-43248.0	-5576512.0
16	15	17	57	519	73.0	-40489.0	-42348.0	-5577942.0
16	15	17	57	519	74.0	-33511.0	-41281.0	-5577592.0
16	15	17	57	520	75.0	-17704.0	-40144.0	-5576817.0
16	15	17	57	520	76.0	1514.0	-39381.0	-5577280.0
16	15	17	57	520	77.0	24884.0	-38407.0	-5578481.0
16	15	17	57	521	79.0	68152.0	-36936.0	-5576944.0
16	15	17	57	521	80.0	81009.0	-36814.0	-5577644.0
16	15	17	57	521	81.0	82554.0	-37749.0	-5578481.0
16	15	17	57	522	82.0	83731.0	-37254.0	-5577656.0
16	15	17	57	522	83.0	82587.0	-36694.0	-5576798.0
16	15	17	57	522	84.0	83981.0	-35845.0	-5577314.0
16	15	17	57	594	85.0	87423.0	-35244.0	-5578149.0
16	15	17	57	595	86.0	77709.0	-34388.0	-5577432.0
16	15	17	57	595	87.0	56346.0	-31641.0	-5576577.0
16	15	17	57	595	88.0	39451.0	-29966.0	-5577167.0
16	15	17	57	596	89.0	28964.0	-29379.0	-5578031.0
16	15	17	57	596	90.0	20490.0	-28121.0	-5577301.0
16	15	17	57	596	91.0	15088.0	-27646.0	-5576728.0
16	15	17	57	596	92.0	9863.0	-26782.0	-5578062.0
16	15	17	57	597	93.0	1656.0	-26297.0	-5578004.0
16	15	17	57	597	94.0	-5414.0	-25169.0	-5577181.0
16	15	17	57	597	95.0	-5451.0	-24337.0	-5577124.0
16	15	17	57	598	96.0	-8871.0	-23631.0	-5578414.0
16	15	17	57	598	97.0	-4679.0	-22739.0	-5577833.0
16	15	17	57	598	98.0	468.0	-21817.0	-5577018.0
16	15	17	57	599	99.0	1164.0	-20726.0	-5576447.0
16	15	17	57	599	102.0	2354.0	-18739.0	-5576324.0
16	15	17	57	599	103.0	15384.0	-20054.0	-5577614.0
16	15	17	57	600	104.0	30266.0	-19809.0	-5578038.0
16	15	17	57	600	105.0	51941.0	-18929.0	-5577143.0
16	15	17	57	600	106.0	68373.0	-18018.0	-5576756.0
16	15	17	57	600	107.0	80357.0	-17163.0	-5578082.0
16	15	17	57	601	108.0	81148.0	-16673.0	-5577987.0
16	15	17	57	601	109.0	72246.0	-15239.0	-5577055.0
16	15	17	57	601	110.0	58683.0	-12944.0	-5576982.0
16	15	17	57	602	111.0	42788.0	-11895.0	-5578312.0
16	15	17	57	602	112.0	20625.0	-10162.0	-5577907.0
16	15	17	57	602	113.0	-377.0	-8942.0	-5576967.0
16	15	17	57	603	114.0	-24377.0	-8351.0	-5577114.0
16	15	17	57	603	115.0	-31180.0	-7219.0	-5578163.0
16	15	17	57	603	116.0	-32118.0	-6357.0	-5577581.0
16	15	17	57	604	117.0	-24366.0	-5357.0	-5576672.0
16	15	17	57	604	118.0	-15610.0	-4636.0	-5576827.0
16	15	17	57	605	119.0	-2534.0	-3612.0	-5577913.0
16	15	17	57	605	120.0	12066.0	-2996.0	-5577344.0
16	15	17	57	605	121.0	24649.0	-1984.0	-5576517.0
16	15	17	57	606	122.0	29588.0	-1701.0	-5577394.0
16	15	17	57	606	124.0	35976.0	-144.0	-5577307.0
16	15	17	57	606	125.0	42294.0	-607.0	-5576556.0
16	15	17	57	607	126.0	45833.0	-1192.0	-5577286.0
16	15	17	57	607	127.0	55759.0	-787.0	-5577269.0
16	15	17	57	608	128.0	52728.0	141.0	-5576553.0
16	15	17	57	608	129.0	48293.0	1337.0	-5577324.0
16	15	17	57	670	130.0	39626.0	1456.0	-5578076.0
16	15	17	57	670	131.0	27827.0	2433.0	-5577165.0
16	15	17	57	671	132.0	13964.0	4974.0	-5576420.0
16	15	17	57	671	133.0	-2371.0	6753.0	-5577225.0
16	15	17	57	671	134.0	-14769.0	7940.0	-5577951.0
16	15	17	57	672	135.0	-20537.0	8271.0	-5577113.0
16	15	17	57	672	136.0	-25199.0	8908.0	-5576340.0
16	15	17	57	672	137.0	-26887.0	10304.0	-5577182.0
16	15	17	57	673	138.0	-26411.0	11012.0	-5577901.0
16	15	17	57	673	139.0	-19581.0	11711.0	-5577086.0
16	15	17	57	673	140.0	-8358.0	12894.0	-5576606.0
16	15	17	57	674	141.0	2611.0	13378.0	-5577982.0
16	15	17	57	674	142.0	15121.0	14057.0	-5578016.0
16	15	17	57	674	143.0	34004.0	14788.0	-5577136.0
16	15	17	57	674	144.0	53212.0	15089.0	-5576710.0
16	15	17	57	675	146.0	67986.0	16726.0	-5578047.0
16	15	17	57	675	147.0	62280.0	16649.0	-5577172.0
16	15	17	57	675	148.0	49782.0	15026.0	-5576576.0
16	15	17	57	676	149.0	34823.0	14929.0	-5577948.0
16	15	17	57	676	150.0	23104.0	14894.0	-5577927.0
16	15	17	57	676	151.0	15320.0	15215.0	-5577101.0
16	15	17	57	676	152.0	1189.0	15638.0	-5576684.0
16	15	17	57	677	153.0	-11737.0	16189.0	-5578148.0
16	15	17	57	677	154.0	-19589.0	17309.0	-5577874.0
16	15	17	57	677	155.0	-22142.0	19864.0	-5577086.0
16	15	17	57	678	156.0	-18169.0	20752.0	-5577445.0
16	15	17	57	678	157.0	-11976.0	21486.0	-5578520.0
16	15	17	57	678	158.0	164.0	22234.0	-5577750.0
16	15	17	57	678	159.0	17266.0	22276.0	-5577025.0
16	15	17	57	679	160.0	28586.0	22811.0	-5577793.0
16	15	17	57	679	161.0	36068.0	23006.0	-5578559.0
16	15	17	57	679	162.0	33103.0	23188.0	-5577686.0
16	15	17	57	680	163.0	24499.0	23434.0	-5576937.0
16	15	17	57	680	164.0	9328.0	24126.0	-5577708.0
16	15	17	57	680	165.0	-11305.0	24622.0	-5578483.0
16	15	17	57	681	166.0	-32268.0	24392.0	-5577617.0
16	15	17	57	681	167.0	-50440.0	24573.0	-5576934.0
16	15	17	57	742	169.0	-99635.0	25626.0	-5578239.0
16	15	17	57	743	170.0	-122549.0	24232.0	-5577369.0
16	15	17	57	743	171.0	-129884.0	23603.0	-5577161.0
16	15	17	57	743	172.0	-112885.0	23380.0	-5578418.0
16	15	17	57	744	173.0	-93102.0	23671.0	-5578082.0
16	15	17	57	744	174.0	-70397.0	23821.0	-5577195.0
16	15	17	57	744	175.0	-47244.0	23883.0	-5577216.0
16	15	17	57	745	176.0	-23334.0	24083.0	-5578454.0
16	15	17	57	745	177.0	5158.0	26153.0	-5577936.0
16	15	17	57	745	178.0	39058.0	27416.0	-5577002.0
16	15	17	57	745	179.0	74388.0	27930.0	-5577204.0
16	15	17	57	746	180.0	112948.0	28288.0	-5578621.0
16	15	17	57	746	181.0	143266.0	28104.0	-5578056.0
16	15	17	57	746	182.0	152187.0	28546.0	-5577197.0
16	15	17	57	747	183.0	123143.0	29041.0	-5577474.0
16	15	17	57	747	184.0	65284.0	29236.0	-5577862.0
16	15	17	57	747	185.0	-64386.0	29574.0	-5577093.0
16	15	17	57	748	186.0	-347894.0	30554.0	-5577267.0
16	15	17	57	748	187.0	-704651.0	30391.0	-5578356.0
16	15	17	57	748	188.0	-958418.0	30124.0	-5577608.0
16	15	17	57	748	189.0	-1022755.0	30333.0	-5576814.0
16	15	17	57	749	191.0	-586078.0	30294.0	-5578330.0
16	15	17	57	749	192.0	-189521.0	29696.0	-5577587.0
16	15	17	57	749	193.0	205754.0	27904.0	-5576900.0
16	15	17	57	750	194.0	481402.0	27766.0	-5577739.0
16	15	17	57	750	195.0	612172.0	27398.0	-5578153.0
16	15	17	57	750	196.0	651811.0	27366.0	-5577326.0
16	15	17	57	750	197.0	633777.0	27848.0	-5576529.0
16	15	17	57	751	198.0	522551.0	28182.0	-5577580.0
16	15	17	57	751	199.0	296454.0	28539.0	-5578376.0
16	15	17	57	751	200.0	21568.0	30120.0	-5577554.0
16	15	17	57	752	201.0	-176027.0	31058.0	-5576839.0
16	15	17	57	752	202.0	-185468.0	31683.0	-5578057.0
16	15	17	57	752	203.0	-60511.0	32195.0	-5578339.0
16	15	17	57	753	204.0	62571.0	32344.0	-5577518.0
16	15	17	57	753	205.0	164821.0	33068.0	-5577036.0
16	15	17	57	821	206.0	223279.0	33625.0	-5578375.0
16	15	17	57	821	207.0	180484.0	33704.0	-5578186.0
16	15	17	57	822	208.0	50850.0	34238.0	-5577359.0
16	15	17	57	822	209.0	-102324.0	34186.0	-5576979.0
16	15	17	57	823	210.0	-173564.0	34261.0	-5577903.0
16	15	17	57	823	211.0	-87824.0	34688.0	-5577327.0
16	15	17	57	823	212.0	97131.0	34550.0	-5576791.0
16	15	17	57	824	214.0	309039.0	34823.0	-5578302.0
16	15	17	57	824	215.0	331833.0	33144.0	-5577406.0
16	15	17	57	824	216.0	320126.0	32219.0	-5576901.0
16	15	17	57	825	217.0	257165.0	32735.0	-5578179.0
16	15	17	57	825	218.0	146833.0	34384.0	-5578393.0
16	15	17	57	826	219.0	-266.0	35199.0	-5577490.0
16	15	17	57	826	220.0	-143776.0	35769.0	-5577457.0
16	15	17	57	826	221.0	-248422.0	35456.0	-5578874.0
16	15	17	57	827	236.0	-8362.0	35031.0	-5578264.0
16	15	17	57	827	237.0	17014.0	34363.0	-5578268.0
16	15	17	57	827	238.0	49359.0	32661.0	-5577496.0
16	15	17	57	828	239.0	76206.0	31724.0	-5577949.0
16	15	17	57	828	240.0	84899.0	30869.0	-5578908.0
16	15	17	57	828	241.0	94064.0	30284.0	-5578071.0
16	15	17	57	829	242.0	108534.0	30136.0	-5577291.0
16	15	17	57	899	243.0	123716.0	30012.0	-5578031.0
16	15	17	57	900	244.0	129376.0	30248.0	-5579024.0
16	15	17	57	900	245.0	129446.0	32158.0	-5578233.0
16	15	17	57	900	246.0	136588.0	33014.0	-5577429.0
16	15	17	57	901	247.0	148813.0	32814.0	-5578006.0
16	15	17	57	901	248.0	158016.0	32654.0	-5578977.0
16	15	17	57	901	249.0	153533.0	32581.0	-5578194.0
16	15	17	57	902	250.0	150593.0	32819.0	-5577599.0
16	15	17	57	902	251.0	140159.0	32872.0	-5578847.0
16	15	17	57	902	252.0	123443.0	32473.0	-5578794.0
16	15	17	57	903	253.0	105410.0	32795.0	-5577944.0
16	15	17	57	903	254.0	88278.0	33376.0	-5577525.0
16	15	17	57	903	255.0	62804.0	33445.0	-5579021.0
16	15	17	57	904	0.0	35078.0	34176.0	-5578925.0
16	15	17	57	904	1.0	7972.0	35248.0	-5578081.0
16	15	17	57	904	3.0	-2579.0	37737.0	-5579301.0
16	15	17	57	905	4.0	-584.0	37772.0	-5578908.0
16	15	17	57	905	5.0	7209.0	38329.0	-5578082.0
16	15	17	57	905	6.0	15274.0	40599.0	-5577759.0
16	15	17	57	906	7.0	23186.0	43528.0	-5579199.0
16	15	17	57	906	8.0	44906.0	47014.0	-5578789.0
16	15	17	57	906	9.0	69899.0	50327.0	-5577969.0
16	15	17	57	907	10.0	75171.0	55076.0	-5577513.0
16	15	17	57	907	11.0	60810.0	61586.0	-5578411.0
16	15	17	57	907	12.0	37413.0	67639.0	-5577932.0
16	15	17	57	908	13.0	20298.0	73848.0	-5577737.0
16	15	17	57	908	14.0	19912.0	79909.0	-5579261.0
16	15	17	57	908	15.0	19469.0	85795.0	-5578951.0
16	15	17	57	909	16.0	6541.0	91604.0	-5578020.0
16	15	17	57	909	17.0	-200.0	98684.0	-5578200.0
16	15	17	57	910	18.0	-3185.0	105499.0	-5579437.0
16	15	17	57	910	19.0	-12130.0	112539.0	-5578851.0
16	15	17	57	910	20.0	-26851.0	119459.0	-5577895.0
16	15	17	57	911	21.0	-48770.0	126749.0	-5577901.0
16	15	17	57	911	22.0	-66502.0	133164.0	-5579031.0
16	15	17	57	912	23.0	-81721.0	135497.0	-5578523.0
16	15	17	57	912	25.0	-100797.0	137320.0	-5578474.0
16	15	17	57	912	26.0	-101518.0	139670.0	-5579287.0
16	15	17	57	913	27.0	-96442.0	141944.0	-5578572.0
16	15	17	57	913	28.0	-93145.0	146231.0	-5577856.0
16	15	17	57	914	29.0	-82809.0	151261.0	-5579027.0
16	15	17	57	914	30.0	-77031.0	156608.0	-5579214.0
16	15	17	57	914	31.0	-79531.0	162014.0	-5578418.0
16	15	17	57	976	32.0	-78228.0	167442.0	-5577837.0
16	15	17	57	976	33.0	-69076.0	173465.0	-5579299.0
16	15	17	57	977	34.0	-48636.0	180571.0	-5579267.0
16	15	17	57	977	35.0	-37981.0	186828.0	-5578458.0
16	15	17	57	977	36.0	-34446.0	192076.0	-5577724.0
16	15	17	57	978	37.0	-26152.0	196851.0	-5578521.0
16	15	17	57	978	38.0	-18330.0	201704.0	-5578513.0
16	15	17	57	978	39.0	-13047.0	206025.0	-5577769.0
16	15	17	57	979	40.0	-21088.0	209729.0	-5578226.0
16	15	17	57	979	41.0	-29782.0	213281.0	-5579159.0
16	15	17	57	979	42.0	-25485.0	216524.0	-5578379.0
16	15	17	57	979	43.0	-20321.0	218735.0	-5577862.0
16	15	17	57	980	44.0	-22631.0	220684.0	-5579194.0
16	15	17	57	980	45.0	-30008.0	222816.0	-5579416.0
16	15	17	57	980	46.0	-37058.0	224596.0	-5578487.0
16	15	17	57	981	48.0	-38760.0	226770.0	-5579291.0
16	15	17	57	981	49.0	-27317.0	224845.0	-5579146.0
16	15	17	57	981	50.0	-14475.0	223268.0	-5578226.0
16	15	17	57	981	51.0	819.0	222187.0	-5577480.0
16	15	17	57	982	52.0	5926.0	220769.0	-5578452.0
16	15	17	57	982	53.0	14406.0	218732.0	-5578788.0
16	15	17	57	982	54.0	25894.0	216510.0	-5577967.0
16	15	17	57	983	55.0	39097.0	214198.0	-5577814.0
16	15	17	57	983	56.0	46035.0	213408.0	-5579181.0
16	15	17	57	983	57.0	52045.0	210979.0	-5578678.0
16	15	17	57	984	58.0	61383.0	207989.0	-5577847.0
16	15	17	57	984	59.0	68224.0	204787.0	-5577875.0
16	15	17	57	984	60.0	75084.0	200733.0	-5578721.0
16	15	17	57	984	61.0	74660.0	196786.0	-5578087.0
16	15	17	57	985	62.0	76754.0	192752.0	-5578052.0
16	15	17	57	985	63.0	78938.0	188358.0	-5579297.0
16	15	17	57	985	64.0	79515.0	183458.0	-5578764.0
16	15	17	57	986	65.0	82580.0	178488.0	-5577905.0
16	15	17	57	986	66.0	80838.0	174382.0	-5578423.0
16	15	17	57	986	67.0	74373.0	169399.0	-5579276.0
16	15	17	58	53	68.0	70133.0	163991.0	-5578546.0
16	15	17	58	53	70.0	50553.0	153201.0	-5578027.0
16	15	17	58	131	71.0	44581.0	146666.0	-5578854.0
16	15	17	58	132	72.0	39208.0	139377.0	-5578194.0
16	15	17	58	132	73.0	38680.0	133371.0	-5577494.0
16	15	17	58	132	74.0	28007.0	127701.0	-5578717.0
16	15	17	58	133	75.0	19768.0	121884.0	-5578992.0
16	15	17	58	133	76.0	16944.0	117129.0	-5578147.0
16	15	17	58	133	77.0	8473.0	112854.0	-5578022.0
16	15	17	58	133	78.0	-889.0	107604.0	-5579218.0
16	15	17	58	134	79.0	-18163.0	102307.0	-5578646.0
16	15	17	58	134	80.0	-56649.0	99459.0	-5577835.0
16	15	17	58	134	81.0	-148751.0	100734.0	-5577621.0
16	15	17	58	135	82.0	-323741.0	101808.0	-5578571.0
16	15	17	58	135	83.0	-488962.0	101392.0	-5577907.0
16	15	17	58	135	84.0	-414602.0	99028.0	-5577574.0
16	15	17	58	136	93.0	-76901.0	57345.0	-5579214.0
16	15	17	58	136	115.0	8908.0	-44615.0	-5579034.0
16	15	17	58	136	138.0	109470.0	-121582.0	-5580081.0
16	15	17	58	136	139.0	107739.0	-126498.0	-5579596.0
16	15	17	58	137	140.0	99686.0	-129725.0	-5578766.0
16	15	17	58	137	141.0	84179.0	-131734.0	-5579122.0
16	15	17	58	137	142.0	65735.0	-133854.0	-5580338.0
16	15	17	58	138	143.0	47444.0	-135873.0	-5579684.0
16	15	17	58	207	144.0	37553.0	-137487.0	-5578910.0
16	15	17	58	207	145.0	34938.0	-138627.0	-5579830.0
16	15	17	58	207	146.0	32302.0	-137946.0	-5580536.0
16	15	17	58	208	147.0	33904.0	-138324.0	-5579722.0
16	15	17	58	208	148.0	40316.0	-139289.0	-5578855.0
16	15	17	58	208	149.0	40885.0	-140313.0	-5579529.0
16	15	17	58	209	150.0	38393.0	-140662.0	-5580222.0
16	15	17	58	209	151.0	38437.0	-141167.0	-5579491.0
16	15	17	58	209	152.0	29930.0	-141654.0	-5578727.0
16	15	17	58	209	153.0	19128.0	-142209.0	-5579999.0
16	15	17	58	210	154.0	4714.0	-141779.0	-5580436.0
16	15	17	58	210	155.0	-8372.0	-141742.0	-5579640.0
16	15	17	58	210	156.0	-13264.0	-141310.0	-5579192.0
16	15	17	58	211	157.0	-15740.0	-141464.0	-5580566.0
16	15	17	58	211	158.0	-18821.0	-140932.0	-5580256.0
16	15	17	58	211	160.0	-33646.0	-139600.0	-5578837.0
16	15	17	58	212	161.0	-43981.0	-139836.0	-5579631.0
16	15	17	58	212	162.0	-52216.0	-140436.0	-5579262.0
16	15	17	58	212	163.0	-57659.0	-139824.0	-5578539.0
16	15	17	58	212	164.0	-56527.0	-139022.0	-5579454.0
16	15	17	58	213	165.0	-49592.0	-137694.0	-5580113.0
16	15	17	58	213	166.0	-37811.0	-135360.0	-5579219.0
16	15	17	58	213	167.0	-29839.0	-132077.0	-5578703.0
16	15	17	58	214	168.0	-26451.0	-130392.0	-5579915.0
16	15	17	58	214	169.0	-28610.0	-128574.0	-5580083.0
16	15	17	58	214	170.0	-35056.0	-126617.0	-5579156.0
16	15	17	58	214	171.0	-41807.0	-125295.0	-5579182.0
16	15	17	58	215	172.0	-48521.0	-123946.0	-5580389.0
16	15	17	58	215	173.0	-58267.0	-122129.0	-5579904.0
16	15	17	58	215	174.0	-69395.0	-120492.0	-5578987.0
16	15	17	58	215	175.0	-68242.0	-118590.0	-5579603.0
16	15	17	58	216	183.0	-48758.0	-103272.0	-5579099.0
16	15	17	58	216	184.0	-34331.0	-103371.0	-5579547.0
16	15	17	58	216	185.0	-17191.0	-102587.0	-5578827.0
16	15	17	58	217	186.0	3481.0	-101144.0	-5579294.0
16	15	17	58	217	187.0	22364.0	-99214.0	-5580505.0
16	15	17	58	217	188.0	39745.0	-97669.0	-5579785.0
16	15	17	58	273	189.0	52697.0	-95876.0	-5579062.0
16	15	17	58	273	190.0	59049.0	-93688.0	-5579800.0
16	15	17	58	274	191.0	62269.0	-90782.0	-5580441.0
16	15	17	58	274	192.0	59096.0	-89439.0	-5579592.0
16	15	17	58	274	193.0	56701.0	-87580.0	-5579093.0
16	15	17	58	274	194.0	53074.0	-86227.0	-5580437.0
16	15	17	58	275	195.0	51026.0	-85097.0	-5580421.0
16	15	17	58	275	196.0	46407.0	-83579.0	-5579546.0
16	15	17	58	275	197.0	38934.0	-81863.0	-5579007.0
16	15	17	58	275	198.0	31905.0	-80844.0	-5580446.0
16	15	17	58	276	199.0	22497.0	-79104.0	-5580451.0
16	15	17	58	276	200.0	5621.0	-77370.0	-5579597.0
16	15	17	58	276	201.0	-10446.0	-76799.0	-5579092.0
16	15	17	58	277	202.0	-25102.0	-75864.0	-5580451.0
16	15	17	58	277	203.0	-37046.0	-74923.0	-5580289.0
16	15	17	58	277	205.0	-39772.0	-72921.0	-5579391.0
16	15	17	58	277	206.0	-37397.0	-73442.0	-5580376.0
16	15	17	58	278	207.0	-28171.0	-73882.0	-5579766.0
16	15	17	58	278	208.0	-25628.0	-73767.0	-5579416.0
16	15	17	58	278	209.0	-26195.0	-74102.0	-5580904.0
16	15	17	58	279	210.0	-34944.0	-73960.0	-5580672.0
16	15	17	58	347	211.0	-46449.0	-73410.0	-5579746.0
16	15	17	58	347	212.0	-54404.0	-72816.0	-5579439.0
16	15	17	58	347	213.0	-64303.0	-70576.0	-5580809.0
16	15	17	58	348	214.0	-72953.0	-68782.0	-5580571.0
16	15	17	58	348	215.0	-79223.0	-67709.0	-5579634.0
16	15	17	58	348	216.0	-79957.0	-66903.0	-5579731.0
16	15	17	58	349	217.0	-74703.0	-66964.0	-5581082.0
16	15	17	58	349	218.0	-65715.0	-66739.0	-5580639.0
16	15	17	58	349	219.0	-50966.0	-66030.0	-5579806.0
16	15	17	58	349	220.0	-38536.0	-65641.0	-5580486.0
16	15	17	58	350	221.0	-21410.0	-65563.0	-5581449.0
16	15	17	58	350	222.0	-898.0	-65232.0	-5580750.0
16	15	17	58	350	223.0	13391.0	-65418.0	-5579891.0
16	15	17	58	351	224.0	21734.0	-65016.0	-5580580.0
16	15	17	58	351	225.0	29048.0	-64246.0	-5581060.0
16	15	17	58	351	227.0	42632.0	-62516.0	-5579363.0
16	15	17	58	352	228.0	46639.0	-63034.0	-5580137.0
16	15	17	58	352	229.0	41879.0	-64895.0	-5581023.0
16	15	17	58	352	230.0	40191.0	-64992.0	-5580324.0
16	15	17	58	353	231.0	37062.0	-64929.0	-5579527.0
16	15	17	58	353	232.0	33540.0	-65153.0	-5579984.0
16	15	17	58	353	233.0	34826.0	-65155.0	-5580129.0
16	15	17	58	353	234.0	36464.0	-64901.0	-5579542.0
16	15	17	58	354	235.0	40492.0	-63906.0	-5580689.0
16	15	17	58	354	236.0	39284.0	-61994.0	-5581034.0
16	15	17	58	354	237.0	42096.0	-60617.0	-5580106.0
16	15	17	58	355	238.0	43373.0	-59697.0	-5579492.0
16	15	17	58	355	239.0	48023.0	-59159.0	-5580547.0
16	15	17	58	355	240.0	40320.0	-58185.0	-5580836.0
16	15	17	58	356	241.0	28280.0	-57766.0	-5579951.0
16	15	17	58	356	242.0	18884.0	-56752.0	-5579321.0
16	15	17	58	356	243.0	14805.0	-55961.0	-5580358.0
16	15	17	58	357	244.0	10130.0	-55399.0	-5580599.0
16	15	17	58	357	245.0	3383.0	-54672.0	-5579706.0
16	15	17	58	357	246.0	-1177.0	-54363.0	-5579269.0
16	15	17	58	358	247.0	-6219.0	-53799.0	-5580616.0
16	15	17	58	358	248.0	-4827.0	-52386.0	-5580508.0
16	15	17	58	358	250.0	10934.0	-51276.0	-5579496.0
16	15	17	58	359	251.0	12559.0	-52191.0	-5580788.0
16	15	17	58	359	252.0	11351.0	-53016.0	-5580331.0
16	15	17	58	359	253.0	13247.0	-52902.0	-5579468.0
16	15	17	58	359	254.0	20214.0	-51975.0	-5579617.0
16	15	17	58	360	255.0	29611.0	-51190.0	-5580349.0
16	15	17	58	412	0.0	33300.0	-51029.0	-5579669.0
16	15	17	58	412	1.0	34943.0	-50149.0	-5579937.0
16	15	17	58	413	2.0	33074.0	-47883.0	-5581157.0
16	15	17	58	413	3.0	26118.0	-46247.0	-5580476.0
16	15	17	58	413	4.0	12218.0	-45202.0	-5579607.0
16	15	17	58	414	5.0	1096.0	-44122.0	-5579587.0
16	15	17	58	414	6.0	-10337.0	-43037.0	-5580808.0
16	15	17	58	414	7.0	-20634.0	-42171.0	-5580280.0
16	15	17	58	414	8.0	-34652.0	-41115.0	-5579454.0
16	15	17	58	415	9.0	-45135.0	-40783.0	-5580104.0
16	15	17	58	415	10.0	-47855.0	-40342.0	-5580824.0
16	15	17	58	415	11.0	-44020.0	-39290.0	-5580072.0
16	15	17	58	416	12.0	-39497.0	-38130.0	-5579342.0
16	15	17	58	416	13.0	-34508.0	-38146.0	-5580472.0
16	15	17	58	416	14.0	-31091.0	-36718.0	-5580842.0
16	15	17	58	417	16.0	-37034.0	-34530.0	-5579509.0
16	15	17	58	417	17.0	-42569.0	-34108.0	-5580721.0
16	15	17	58	417	18.0	-45302.0	-35378.0	-5580472.0
16	15	17	58	418	19.0	-41304.0	-34858.0	-5579641.0
16	15	17	58	418	20.0	-33692.0	-33939.0	-5579112.0
16	15	17	58	418	21.0	-24297.0	-32808.0	-5580523.0
16	15	17	58	419	22.0	-18106.0	-31962.0	-5580360.0
16	15	17	58	419	23.0	-14851.0	-31421.0	-5579577.0
16	15	17	58	493	24.0	-7949.0	-29983.0	-5579258.0
16	15	17	58	493	25.0	-5792.0	-27371.0	-5580694.0
16	15	17	58	493	26.0	3402.0	-25951.0	-5580273.0
16	15	17	58	494	27.0	7705.0	-25036.0	-5579537.0
16	15	17	58	494	28.0	10004.0	-24263.0	-5580228.0
16	15	17	58	494	29.0	9436.0	-23159.0	-5581141.0
16	15	17	58	495	30.0	15847.0	-21877.0	-5580285.0
16	15	17	58	495	31.0	21259.0	-20911.0	-5579616.0
16	15	17	58	495	32.0	12532.0	-19779.0	-5580511.0
16	15	17	58	496	33.0	6011.0	-18223.0	-5581122.0
16	15	17	58	496	34.0	3453.0	-17536.0	-5580242.0
16	15	17	58	496	35.0	12251.0	-17199.0	-5579564.0
16	15	17	58	497	36.0	20522.0	-16274.0	-5580580.0
16	15	17	58	497	37.0	21894.0	-15322.0	-5581017.0
16	15	17	58	497	39.0	7734.0	-13484.0	-5579523.0
16	15	17	58	497	46.0	7266.0	-6804.0	-5580001.0
16	15	17	58	498	47.0	14855.0	-6552.0	-5580041.0
16	15	17	58	498	48.0	30352.0	-7581.0	-5580579.0
16	15	17	58	498	49.0	41874.0	-7031.0	-5579844.0
16	15	17	58	499	50.0	44238.0	-6182.0	-5579615.0
16	15	17	58	499	51.0	42424.0	-5301.0	-5581136.0
16	15	17	58	499	52.0	34562.0	-4597.0	-5580843.0
16	15	17	58	500	53.0	30725.0	-3541.0	-5579962.0
16	15	17	58	500	54.0	25659.0	-1067.0	-5579452.0
16	15	17	58	500	55.0	27440.0	-1145.0	-5580855.0
16	15	17	58	501	56.0	42551.0	-844.0	-5580938.0
16	15	17	58	501	57.0	56778.0	1420.0	-5580059.0
16	15	17	58	501	58.0	66449.0	2659.0	-5579850.0
16	15	17	58	502	59.0	63133.0	3781.0	-5581109.0
16	15	17	58	502	60.0	62723.0	4986.0	-5580753.0
16	15	17	58	502	61.0	58574.0	5672.0	-5579897.0
16	15	17	58	503	62.0	43235.0	5853.0	-5580341.0
16	15	17	58	503	63.0	17264.0	5871.0	-5581334.0
16	15	17	58	503	64.0	-10264.0	8265.0	-5580658.0
16	15	17	58	503	65.0	-31983.0	9420.0	-5579831.0
16	15	17	58	504	66.0	-49086.0	10073.0	-5580776.0
16	15	17	58	504	67.0	-57203.0	10536.0	-5581204.0
16	15	17	58	504	68.0	-63776.0	11135.0	-5580446.0
16	15	17	58	505	69.0	-70248.0	11331.0	-5579859.0
16	15	17	58	505	70.0	-77140.0	10746.0	-5581309.0
16	15	17	58	505	71.0	-80919.0	10245.0	-5581297.0
16	15	17	58	506	72.0	-75834.0	10562.0	-5580489.0
16	15	17	58	506	73.0	-73194.0	10835.0	-5579776.0
16	15	17	58	506	74.0	-60060.0	11481.0	-5580725.0
16	15	17	58	506	75.0	-32535.0	13235.0	-5580717.0
16	15	17	58	507	76.0	2400.0	15359.0	-5580142.0
16	15	17	58	507	77.0	38124.0	15194.0	-5581282.0
16	15	17	58	569	78.0	77589.0	14263.0	-5581650.0
16	15	17	58	569	79.0	99974.0	16331.0	-5580752.0
16	15	17	58	569	80.0	107363.0	17821.0	-5580414.0
16	15	17	58	570	81.0	108138.0	18339.0	-5581845.0
16	15	17	58	570	82.0	99821.0	18973.0	-5581789.0
16	15	17	58	570	83.0	94332.0	19473.0	-5580815.0
16	15	17	58	571	84.0	87222.0	19976.0	-5580202.0
16	15	17	58	571	85.0	81119.0	18576.0	-5581237.0
16	15	17	58	571	86.0	82432.0	17657.0	-5581506.0
16	15	17	58	572	87.0	77867.0	17979.0	-5580609.0
16	15	17	58	572	88.0	55762.0	20061.0	-5580364.0
16	15	17	58	572	89.0	5414.0	21478.0	-5581505.0
16	15	17	58	573	90.0	-62584.0	22334.0	-5581097.0
16	15	17	58	573	91.0	-146689.0	22546.0	-5580287.0
16	15	17	58	573	92.0	-323955.0	22643.0	-5581331.0
16	15	17	58	574	93.0	-618056.0	21131.0	-5582205.0
16	15	17	58	574	94.0	-877972.0	21558.0	-5581393.0
16	15	17	58	574	95.0	-991384.0	23643.0	-5580532.0
16	15	17	58	575	96.0	-940411.0	24139.0	-5580950.0
16	15	17	58	575	97.0	-761004.0	24709.0	-5581526.0
16	15	17	58	575	98.0	-485826.0	24967.0	-5580824.0
16	15	17	58	575	99.0	-120518.0	24721.0	-5580619.0
16	15	17	58	576	100.0	265875.0	23559.0	-5582233.0
16	15	17	58	576	101.0	577135.0	22911.0	-5581963.0
16	15	17	58	576	102.0	764573.0	23493.0	-5581111.0
16	15	17	58	577	103.0	833350.0	26176.0	-5581027.0
16	15	17	58	577	104.0	801205.0	27243.0	-5582460.0
16	15	17	58	577	105.0	659874.0	27303.0	-5582002.0
16	15	17	58	578	106.0	395290.0	27391.0	-5581099.0
16	15	17	58	578	107.0	48707.0	26531.0	-5581377.0
16	15	17	58	650	108.0	-252942.0	25298.0	-5582494.0
16	15	17	58	650	109.0	-375453.0	25892.0	-5581828.0
16	15	17	58	650	110.0	-274941.0	27507.0	-5581054.0
16	15	17	58	651	111.0	-71526.0	28511.0	-5581861.0
16	15	17	58	651	112.0	101004.0	28461.0	-5582483.0
16	15	17	58	652	113.0	184436.0	28657.0	-5581707.0
16	15	17	58	652	114.0	168039.0	29339.0	-5580870.0
16	15	17	58	652	115.0	116064.0	29127.0	-5581591.0
16	15	17	58	652	116.0	122394.0	29696.0	-5582344.0
16	15	17	58	653	117.0	196918.0	30159.0	-5581606.0
16	15	17	58	653	118.0	299788.0	30399.0	-5580822.0
16	15	17	58	653	119.0	380180.0	30277.0	-5581950.0
16	15	17	58	654	120.0	415866.0	30104.0	-5582573.0
16	15	17	58	654	121.0	404070.0	31062.0	-5581810.0
16	15	17	58	654	122.0	332201.0	30347.0	-5581099.0
16	15	17	58	655	123.0	206361.0	28579.0	-5582411.0
16	15	17	58	655	124.0	45534.0	27969.0	-5582669.0
16	15	17	58	655	125.0	-119652.0	27689.0	-5581862.0
16	15	17	58	655	126.0	-252437.0	27684.0	-5581274.0
16	15	17	58	656	127.0	-325934.0	27754.0	-5582426.0
16	15	17	58	656	128.0	-325212.0	29013.0	-5582174.0
16	15	17	58	656	129.0	-279636.0	30793.0	-5581564.0
16	15	17	58	657	130.0	-224064.0	30236.0	-5582604.0
16	15	17	58	657	131.0	-174400.0	31403.0	-5582879.0
16	15	17	58	657	132.0	-136249.0	32386.0	-5581949.0
16	15	17	58	658	133.0	-113876.0	32082.0	-5581296.0
16	15	17	58	658	134.0	-98216.0	31885.0	-5582232.0
16	15	17	58	658	135.0	-88331.0	31996.0	-5582675.0
16	15	17	58	659	136.0	-92825.0	31639.0	-5581780.0
16	15	17	58	659	137.0	-107464.0	30955.0	-5581348.0
16	15	17	58	659	138.0	-122061.0	29347.0	-5582518.0
16	15	17	58	660	139.0	-131544.0	29156.0	-5582384.0
16	15	17	58	660	140.0	-132267.0	29098.0	-5581496.0
16	15	17	58	660	141.0	-113628.0	31006.0	-5581596.0
16	15	17	58	661	142.0	-77691.0	31215.0	-5582946.0
16	15	17	58	662	143.0	-31081.0	30721.0	-5582461.0
16	15	17	58	662	144.0	14439.0	30333.0	-5581566.0
16	15	17	58	663	145.0	61201.0	28859.0	-5581691.0
16	15	17	58	663	146.0	102389.0	28191.0	-5582894.0
16	15	17	58	663	147.0	129609.0	30219.0	-5582299.0
16	15	17	58	664	148.0	143701.0	30703.0	-5581463.0
16	15	17	58	664	149.0	151693.0	30768.0	-5581919.0
16	15	17	58	664	150.0	163122.0	30366.0	-5583085.0
16	15	17	58	665	151.0	182534.0	30485.0	-5582381.0
16	15	17	58	665	152.0	198881.0	29625.0	-5581541.0
16	15	17	58	665	153.0	199660.0	27514.0	-5581473.0
16	15	17	58	666	154.0	190719.0	27282.0	-5582159.0
16	15	17	58	666	155.0	175581.0	28848.0	-5581547.0
16	15	17	58	666	156.0	161606.0	29278.0	-5582081.0
16	15	17	58	667	157.0	141308.0	29259.0	-5583015.0
16	15	17	58	667	158.0	117857.0	29113.0	-5582239.0
16	15	17	58	667	159.0	104834.0	29299.0	-5581493.0
16	15	17	58	667	160.0	92251.0	27451.0	-5582466.0
16	15	17	58	719	161.0	87252.0	26880.0	-5583021.0
16	15	17	58	719	162.0	81972.0	28049.0	-5582200.0
16	15	17	58	720	163.0	78370.0	30134.0	-5581387.0
16	15	17	58	720	164.0	81321.0	31458.0	-5582275.0
16	15	17	58	721	165.0	83878.0	32249.0	-5582964.0
16	15	17	58	721	166.0	84451.0	32583.0	-5582215.0
16	15	17	58	722	167.0	75003.0	33037.0	-5581482.0
16	15	17	58	722	168.0	61499.0	35117.0	-5582719.0
16	15	17	58	722	169.0	44971.0	37492.0	-5583169.0
16	15	17	58	723	170.0	26426.0	39526.0	-5582356.0
16	15	17	58	723	171.0	10058.0	42516.0	-5581670.0
16	15	17	58	723	172.0	-6994.0	45479.0	-5582777.0
16	15	17	58	724	173.0	-27336.0	48931.0	-5582771.0
16	15	17	58	724	174.0	-45655.0	52757.0	-5581974.0
16	15	17	58	725	175.0	-62831.0	55641.0	-5581682.0
16	15	17	58	725	176.0	-87374.0	60287.0	-5583156.0
16	15	17	58	725	177.0	-106850.0	65157.0	-5582728.0
16	15	17	58	726	178.0	-112709.0	70325.0	-5581909.0
16	15	17	58	726	179.0	-113157.0	76633.0	-5581227.0
16	15	17	58	726	180.0	-105844.0	83547.0	-5581839.0
16	15	17	58	727	181.0	-104159.0	91908.0	-5581383.0
16	15	17	58	727	182.0	-101764.0	98348.0	-5580852.0
16	15	17	58	727	183.0	-97809.0	105653.0	-5582148.0
16	15	17	58	728	184.0	-95924.0	113574.0	-5582377.0
16	15	17	58	728	185.0	-87124.0	121018.0	-5581437.0
16	15	17	58	728	186.0	-83777.0	127919.0	-5581264.0
16	15	17	58	729	187.0	-81737.0	131337.0	-5582659.0
16	15	17	58	729	188.0	-72217.0	131639.0	-5582362.0
16	15	17	58	729	189.0	-53876.0	132739.0	-5581439.0
16	15	17	58	730	190.0	-40876.0	133651.0	-5581572.0
16	15	17	58	792	191.0	-39026.0	136773.0	-5582659.0
16	15	17	58	793	192.0	-44709.0	140578.0	-5582085.0
16	15	17	58	793	193.0	-51136.0	146261.0	-5581178.0
16	15	17	58	793	194.0	-49864.0	152047.0	-5581842.0
16	15	17	58	794	195.0	-37932.0	157626.0	-5582792.0
16	15	17	58	794	196.0	-31175.0	162835.0	-5582074.0
16	15	17	58	794	197.0	-26712.0	167284.0	-5581206.0
16	15	17	58	795	198.0	-22939.0	171394.0	-5581597.0
16	15	17	58	795	199.0	-13134.0	176915.0	-5582608.0
16	15	17	58	795	200.0	3216.0	183416.0	-5581917.0
16	15	17	58	795	201.0	23658.0	188201.0	-5581109.0
16	15	17	58	796	202.0	38755.0	192902.0	-5581716.0
16	15	17	58	796	203.0	52812.0	197089.0	-5582447.0
16	15	17	58	796	204.0	63637.0	199976.0	-5581701.0
16	15	17	58	796	205.0	73246.0	201575.0	-5581246.0
16	15	17	58	797	206.0	75343.0	203765.0	-5582606.0
16	15	17	58	797	207.0	71268.0	207688.0	-5582466.0
16	15	17	58	797	208.0	58161.0	210618.0	-5581604.0
16	15	17	58	797	209.0	46476.0	212331.0	-5581595.0
16	15	17	58	798	210.0	36426.0	213586.0	-5582909.0
16	15	17	58	798	211.0	28673.0	214306.0	-5582377.0
16	15	17	58	798	212.0	22526.0	213401.0	-5581469.0
16	15	17	58	799	213.0	16521.0	211691.0	-5581322.0
16	15	17	58	799	214.0	8996.0	211390.0	-5582501.0
16	15	17	58	799	215.0	8661.0	211964.0	-5582059.0
16	15	17	58	799	216.0	13319.0	211413.0	-5581179.0
16	15	17	58	800	217.0	17598.0	210035.0	-5581896.0
16	15	17	58	800	218.0	15431.0	208118.0	-5582947.0
16	15	17	58	800	219.0	17980.0	205419.0	-5582272.0
16	15	17	58	801	220.0	20261.0	200453.0	-5581467.0
16	15	17	58	801	221.0	14988.0	196853.0	-5582404.0
16	15	17	58	864	222.0	6433.0	195093.0	-5583122.0
16	15	17	58	864	223.0	24397.0	192353.0	-5582359.0
16	15	17	58	864	224.0	48050.0	188442.0	-5581636.0
16	15	17	58	865	225.0	97624.0	184559.0	-5582817.0
16	15	17	58	865	226.0	161822.0	180146.0	-5582979.0
16	15	17	58	865	227.0	181651.0	173690.0	-5582160.0
16	15	17	58	866	228.0	185903.0	167208.0	-5581410.0
16	15	17	58	866	229.0	213313.0	162258.0	-5582172.0
16	15	17	58	866	230.0	218776.0	158681.0	-5582064.0
16	15	17	58	866	231.0	211841.0	154372.0	-5581346.0
16	15	17	58	867	232.0	205451.0	149067.0	-5582076.0
16	15	17	58	867	233.0	179274.0	144092.0	-5583054.0
16	15	17	58	867	234.0	151706.0	138104.0	-5582210.0
16	15	17	58	868	235.0	132067.0	130628.0	-5581710.0
16	15	17	58	868	236.0	109805.0	124478.0	-5583017.0
16	15	17	58	868	237.0	92994.0	120164.0	-5583252.0
16	15	17	58	869	238.0	59632.0	115196.0	-5582328.0
16	15	17	58	869	239.0	-7245.0	109969.0	-5581918.0
16	15	17	58	869	240.0	-108741.0	104869.0	-5583186.0
16	15	17	58	869	241.0	-293874.0	99208.0	-5583121.0
16	15	17	58	869	242.0	-504284.0	94214.0	-5582174.0
16	15	17	58	870	243.0	-453434.0	94063.0	-5581550.0
16	15	17	58	870	244.0	-98694.0	94936.0	-5582731.0
16	15	17	58	870	245.0	261066.0	96006.0	-5583098.0
16	15	17	58	871	246.0	480242.0	95545.0	-5582212.0
16	15	17	58	871	247.0	516499.0	93238.0	-5581802.0
16	15	17	58	871	248.0	377092.0	90090.0	-5583214.0
16	15	17	58	872	249.0	210719.0	85924.0	-5583111.0
16	15	17	58	872	250.0	83635.0	79708.0	-5582221.0
16	15	17	58	872	251.0	9179.0	74200.0	-5582416.0
16	15	17	58	873	252.0	-33542.0	71025.0	-5583730.0
16	15	17	58	873	253.0	-93235.0	67049.0	-5583189.0
16	15	17	58	873	254.0	-160242.0	61941.0	-5582360.0
16	15	17	58	874	255.0	-196904.0	56971.0	-5583116.0
16	15	17	58	874	0.0	-202285.0	51830.0	-5583707.0
16	15	17	58	874	1.0	-189672.0	45792.0	-5582897.0
16	15	17	58	874	2.0	-148612.0	38923.0	-5582047.0
16	15	17	58	875	3.0	-92961.0	34266.0	-5582442.0
16	15	17	58	875	4.0	-40404.0	31068.0	-5583541.0
16	15	17	58	876	5.0	-18772.0	27338.0	-5582804.0
16	15	17	58	876	6.0	-45953.0	22806.0	-5582049.0
16	15	17	58	877	7.0	-139857.0	17929.0	-5582904.0
16	15	17	58	877	8.0	-246586.0	13164.0	-5583443.0
16	15	17	58	944	9.0	-295201.0	6974.0	-5582577.0
16	15	17	58	944	10.0	-262224.0	2284.0	-5582188.0
16	15	17	58	945	11.0	-205147.0	-853.0	-5583584.0
16	15	17	58	945	12.0	-166460.0	-4376.0	-5583497.0
16	15	17	58	946	13.0	-95551.0	-8633.0	-5582605.0
16	15	17	58	946	14.0	-22119.0	-12517.0	-5582370.0
16	15	17	58	946	15.0	21555.0	-16004.0	-5583633.0
16	15	17	58	946	16.0	54911.0	-21088.0	-5583317.0
16	15	17	58	947	17.0	77306.0	-26052.0	-5582408.0
16	15	17	58	947	18.0	99211.0	-29937.0	-5582452.0
16	15	17	58	947	19.0	104980.0	-31711.0	-5583614.0
16	15	17	58	948	20.0	93971.0	-34723.0	-5583138.0
16	15	17	58	948	21.0	62989.0	-38061.0	-5582224.0
16	15	17	58	948	22.0	22369.0	-41741.0	-5582809.0
16	15	17	58	949	23.0	-9924.0	-45620.0	-5584034.0
16	15	17	58	949	24.0	-26172.0	-50722.0	-5583386.0
16	15	17	58	949	25.0	-27533.0	-54815.0	-5582449.0
16	15	17	58	949	26.0	-20461.0	-56912.0	-5582754.0
16	15	17	58	950	27.0	-1177.0	-59496.0	-5583891.0
16	15	17	58	950	28.0	18013.0	-62904.0	-5583295.0
16	15	17	58	950	29.0	41684.0	-66519.0	-5582509.0
16	15	17	58	951	30.0	66331.0	-69703.0	-5583515.0
16	15	17	58	951	31.0	93140.0	-74536.0	-5584034.0
16	15	17	58	951	32.0	111991.0	-79056.0	-5583266.0
16	15	17	58	952	33.0	124004.0	-82294.0	-5582584.0
16	15	17	58	952	34.0	134324.0	-83819.0	-5583846.0
16	15	17	58	952	35.0	142718.0	-86502.0	-5584099.0
16	15	17	58	953	36.0	157758.0	-89652.0	-5583266.0
16	15	17	58	953	37.0	171723.0	-92333.0	-5582672.0
16	15	17	58	953	38.0	184131.0	-95482.0	-5583804.0
16	15	17	58	954	39.0	179481.0	-100379.0	-5583860.0
16	15	17	58	954	40.0	164463.0	-103344.0	-5582974.0
16	15	17	58	954	41.0	150579.0	-104015.0	-5582750.0
16	15	17	58	955	42.0	145236.0	-106148.0	-5584132.0
16	15	17	58	955	43.0	136339.0	-108341.0	-5583827.0
16	15	17	58	955	44.0	125710.0	-111176.0	-5582973.0
16	15	17	58	956	45.0	116107.0	-113571.0	-5583377.0
16	15	17	58	956	46.0	102876.0	-117585.0	-5584396.0
16	15	17	59	11	47.0	88151.0	-121064.0	-5583709.0
16	15	17	59	12	48.0	75459.0	-122354.0	-5582876.0
16	15	17	59	12	49.0	57481.0	-122364.0	-5583820.0
16	15	17	59	13	50.0	30022.0	-123462.0	-5584507.0
16	15	17	59	13	51.0	13162.0	-124487.0	-5583716.0
16	15	17	59	13	52.0	8546.0	-125354.0	-5582869.0
16	15	17	59	14	53.0	768.0	-127030.0	-5583788.0
16	15	17	59	14	54.0	5641.0	-129821.0	-5584421.0
16	15	17	59	14	55.0	8594.0	-131538.0	-5583629.0
16	15	17	59	15	56.0	18538.0	-130414.0	-5582821.0
16	15	17	59	15	57.0	22308.0	-129496.0	-5583889.0
16	15	17	59	15	58.0	22473.0	-129386.0	-5584205.0
16	15	17	59	16	59.0	18278.0	-129232.0	-5583401.0
16	15	17	59	16	60.0	6252.0	-129319.0	-5583202.0
16	15	17	59	16	61.0	-2504.0	-130692.0	-5584594.0
16	15	17	59	17	62.0	-11523.0	-131512.0	-5584067.0
16	15	17	59	17	63.0	-13489.0	-130231.0	-5583280.0
16	15	17	59	17	64.0	-7808.0	-127934.0	-5583388.0
16	15	17	59	18	65.0	4978.0	-126776.0	-5584662.0
16	15	17	59	18	66.0	19028.0	-125836.0	-5583980.0
16	15	17	59	18	67.0	38683.0	-124987.0	-5583154.0
16	15	17	59	19	68.0	63122.0	-124068.0	-5583212.0
16	15	17	59	19	69.0	80994.0	-125172.0	-5584408.0
16	15	17	59	20	70.0	93658.0	-124561.0	-5583753.0
16	15	17	59	20	71.0	95909.0	-122907.0	-5582933.0
16	15	17	59	20	72.0	92197.0	-119771.0	-5583422.0
16	15	17	59	21	73.0	82072.0	-117339.0	-5584308.0
16	15	17	59	21	74.0	77725.0	-115354.0	-5583577.0
16	15	17	59	22	75.0	71691.0	-113770.0	-5582970.0
16	15	17	59	83	76.0	74148.0	-113632.0	-5584063.0
16	15	17	59	84	77.0	75792.0	-113009.0	-5584107.0
16	15	17	59	84	78.0	75166.0	-109821.0	-5583244.0
16	15	17	59	85	79.0	72277.0	-106926.0	-5582689.0
16	15	17	59	85	80.0	61224.0	-105307.0	-5584030.0
16	15	17	59	85	81.0	40993.0	-103496.0	-5583997.0
16	15	17	59	85	82.0	11661.0	-101749.0	-5583142.0
16	15	17	59	86	83.0	-23117.0	-100022.0	-5582611.0
16	15	17	59	86	84.0	-57210.0	-99732.0	-5584023.0
16	15	17	59	86	85.0	-92503.0	-98789.0	-5583840.0
16	15	17	59	86	86.0	-122451.0	-96274.0	-5583007.0
16	15	17	59	87	87.0	-145976.0	-92587.0	-5582537.0
16	15	17	59	87	88.0	-152954.0	-91223.0	-5583455.0
16	15	17	59	87	89.0	-150841.0	-89346.0	-5582929.0
16	15	17	59	88	90.0	-144845.0	-87512.0	-5582789.0
16	15	17	59	88	91.0	-134012.0	-87179.0	-5584067.0
16	15	17	59	88	92.0	-122119.0	-86890.0	-5583645.0
16	15	17	59	89	93.0	-117627.0	-83806.0	-5582762.0
16	15	17	59	89	94.0	-113464.0	-81487.0	-5583124.0
16	15	17	59	89	95.0	-108517.0	-79391.0	-5584356.0
16	15	17	59	89	96.0	-99871.0	-77543.0	-5583756.0
16	15	17	59	90	97.0	-95136.0	-76662.0	-5582855.0
16	15	17	59	90	98.0	-87022.0	-75149.0	-5583267.0
16	15	17	59	90	99.0	-75032.0	-75757.0	-5584201.0
16	15	17	59	91	100.0	-63132.0	-75241.0	-5583534.0
16	15	17	59	91	101.0	-42668.0	-73172.0	-5582598.0
16	15	17	59	91	102.0	-29022.0	-70416.0	-5583083.0
16	15	17	59	92	103.0	-21829.0	-69302.0	-5584122.0
16	15	17	59	92	104.0	-9798.0	-67626.0	-5583489.0
16	15	17	59	92	105.0	2141.0	-66028.0	-5582624.0
16	15	17	59	93	106.0	8313.0	-66587.0	-5583412.0
16	15	17	59	93	107.0	3119.0	-66825.0	-5584256.0
16	15	17	59	93	108.0	-9483.0	-64831.0	-5583546.0
16	15	17	59	156	109.0	-25774.0	-63352.0	-5582881.0
16	15	17	59	157	110.0	-27214.0	-62008.0	-5584165.0
16	15	17	59	157	111.0	-22289.0	-61601.0	-5584239.0
16	15	17	59	157	112.0	-15076.0	-61026.0	-5583446.0
16	15	17	59	158	113.0	-12041.0	-61263.0	-5582971.0
16	15	17	59	158	114.0	-1977.0	-61742.0	-5584464.0
16	15	17	59	159	115.0	22096.0	-59855.0	-5584279.0
16	15	17	59	159	116.0	40938.0	-59214.0	-5583416.0
16	15	17	59	159	117.0	59054.0	-58666.0	-5583159.0
16	15	17	59	159	118.0	61524.0	-59329.0	-5584592.0
16	15	17	59	160	119.0	50791.0	-58598.0	-5584224.0
16	15	17	59	160	120.0	35180.0	-57922.0	-5583352.0
16	15	17	59	160	121.0	18949.0	-59121.0	-5583229.0
16	15	17	59	160	122.0	3838.0	-60124.0	-5584487.0
16	15	17	59	161	123.0	-7366.0	-60027.0	-5584038.0
16	15	17	59	161	124.0	-23947.0	-60213.0	-5583189.0
16	15	17	59	161	125.0	-23427.0	-59999.0	-5583787.0
16	15	17	59	162	126.0	-25664.0	-58233.0	-5584764.0
16	15	17	59	162	127.0	-26732.0	-57262.0	-5584041.0
16	15	17	59	162	128.0	-26102.0	-57579.0	-5583263.0
16	15	17	59	162	129.0	-26465.0	-59521.0	-5584232.0
16	15	17	59	163	130.0	-14601.0	-58151.0	-5584745.0
16	15	17	59	163	131.0	-647.0	-56868.0	-5583913.0
16	15	17	59	163	132.0	15614.0	-57436.0	-5583129.0
16	15	17	59	164	133.0	26916.0	-56846.0	-5584194.0
16	15	17	59	164	134.0	36178.0	-56104.0	-5584512.0
16	15	17	59	164	135.0	47227.0	-56384.0	-5583719.0
16	15	17	59	165	136.0	51106.0	-58164.0	-5582992.0
16	15	17	59	165	137.0	60291.0	-58829.0	-5584303.0
16	15	17	59	165	138.0	66847.0	-58611.0	-5584544.0
16	15	17	59	165	139.0	76797.0	-56677.0	-5583731.0
16	15	17	59	166	140.0	80033.0	-55603.0	-5583261.0
16	15	17	59	166	141.0	75674.0	-55336.0	-5584068.0
16	15	17	59	166	142.0	74452.0	-54826.0	-5583552.0
16	15	17	59	167	143.0	78844.0	-55369.0	-5583161.0
16	15	17	59	167	144.0	80242.0	-57102.0	-5584527.0
16	15	17	59	168	145.0	78157.0	-56576.0	-5584469.0
16	15	17	59	168	146.0	73839.0	-54749.0	-5583538.0
16	15	17	59	168	147.0	65774.0	-53509.0	-5583053.0
16	15	17	59	169	148.0	56006.0	-53090.0	-5584211.0
16	15	17	59	169	149.0	40493.0	-52879.0	-5584207.0
16	15	17	59	169	150.0	28068.0	-52437.0	-5583252.0
16	15	17	59	170	151.0	28078.0	-53219.0	-5583165.0
16	15	17	59	231	152.0	34260.0	-53980.0	-5584445.0
16	15	17	59	232	153.0	40071.0	-53152.0	-5584020.0
16	15	17	59	232	154.0	40099.0	-51029.0	-5583094.0
16	15	17	59	232	155.0	35273.0	-50265.0	-5583437.0
16	15	17	59	233	156.0	36324.0	-49585.0	-5584596.0
16	15	17	59	233	157.0	33273.0	-49306.0	-5583994.0
16	15	17	59	233	158.0	25758.0	-49522.0	-5583179.0
16	15	17	59	233	159.0	18061.0	-50733.0	-5583747.0
16	15	17	59	234	160.0	6361.0	-50576.0	-5583805.0
16	15	17	59	234	161.0	-791.0	-48195.0	-5583042.0
16	15	17	59	234	162.0	-11686.0	-46289.0	-5583578.0
16	15	17	59	235	163.0	-21414.0	-45404.0	-5584633.0
16	15	17	59	235	164.0	-29864.0	-44767.0	-5583852.0
16	15	17	59	235	165.0	-44257.0	-44214.0	-5583053.0
16	15	17	59	235	166.0	-54895.0	-44861.0	-5583529.0
16	15	17	59	236	167.0	-63776.0	-45065.0	-5584477.0
16	15	17	59	236	168.0	-67643.0	-43797.0	-5583707.0
16	15	17	59	236	169.0	-61497.0	-41227.0	-5582987.0
16	15	17	59	237	170.0	-53689.0	-40183.0	-5583944.0
16	15	17	59	237	171.0	-35597.0	-39306.0	-5584322.0
16	15	17	59	237	172.0	-31076.0	-38239.0	-5583443.0
16	15	17	59	237	173.0	-35232.0	-37913.0	-5583139.0
16	15	17	59	238	174.0	-40611.0	-38828.0	-5584677.0
16	15	17	59	238	175.0	-44688.0	-37910.0	-5584494.0
16	15	17	59	238	176.0	-34823.0	-35466.0	-5583644.0
16	15	17	59	239	177.0	-30929.0	-34188.0	-5583408.0
16	15	17	59	239	178.0	-29512.0	-32872.0	-5584834.0
16	15	17	59	239	179.0	-37398.0	-31787.0	-5584412.0
16	15	17	59	239	180.0	-35002.0	-30711.0	-5583562.0
16	15	17	59	240	181.0	-23787.0	-31194.0	-5583267.0
16	15	17	59	240	182.0	-7246.0	-31484.0	-5584084.0
16	15	17	59	240	183.0	11299.0	-30214.0	-5583486.0
16	15	17	59	241	184.0	22899.0	-27576.0	-5583055.0
16	15	17	59	241	185.0	31285.0	-25948.0	-5584449.0
16	15	17	59	241	186.0	34425.0	-24857.0	-5584331.0
16	15	17	59	242	187.0	36077.0	-24143.0	-5583464.0
16	15	17	59	242	188.0	29289.0	-23597.0	-5583355.0
16	15	17	59	314	189.0	19066.0	-24494.0	-5584716.0
16	15	17	59	315	190.0	4706.0	-23442.0	-5584271.0
16	15	17	59	315	191.0	-5689.0	-20546.0	-5583399.0
16	15	17	59	315	192.0	-9012.0	-19177.0	-5584107.0
16	15	17	59	316	193.0	-2279.0	-18038.0	-5585203.0
16	15	17	59	316	194.0	14555.0	-17242.0	-5584497.0
16	15	17	59	316	195.0	23455.0	-16337.0	-5583544.0
16	15	17	59	317	196.0	28564.0	-17389.0	-5583821.0
16	15	17	59	317	197.0	21639.0	-17328.0	-5585239.0
16	15	17	59	317	198.0	4694.0	-15872.0	-5584739.0
16	15	17	59	318	199.0	-20591.0	-13616.0	-5583819.0
16	15	17	59	318	200.0	-43023.0	-12650.0	-5584161.0
16	15	17	59	318	201.0	-59453.0	-12099.0	-5585341.0
16	15	17	59	319	202.0	-64379.0	-10893.0	-5584771.0
16	15	17	59	319	203.0	-66906.0	-10714.0	-5583936.0
16	15	17	59	319	204.0	-64719.0	-11442.0	-5584808.0
16	15	17	59	319	205.0	-56869.0	-10239.0	-5585698.0
16	15	17	59	320	206.0	-38345.0	-8072.0	-5584994.0
16	15	17	59	320	207.0	-15168.0	-7058.0	-5584176.0
16	15	17	59	320	208.0	-2311.0	-6397.0	-5585220.0
16	15	17	59	321	209.0	3288.0	-5056.0	-5585776.0
16	15	17	59	321	210.0	4157.0	-4566.0	-5584996.0
16	15	17	59	321	211.0	8573.0	-5518.0	-5584174.0
16	15	17	59	322	212.0	16342.0	-5472.0	-5585194.0
16	15	17	59	322	213.0	21229.0	-3730.0	-5585774.0
16	15	17	59	322	214.0	21485.0	-921.0	-5584980.0
16	15	17	59	323	215.0	20943.0	-254.0	-5584181.0
16	15	17	59	323	216.0	24046.0	535.0	-5584704.0
16	15	17	59	323	217.0	25317.0	1558.0	-5584892.0
16	15	17	59	324	218.0	19925.0	2866.0	-5584238.0
16	15	17	59	324	219.0	13432.0	3954.0	-5585193.0
16	15	17	59	324	220.0	4859.0	4253.0	-5585584.0
16	15	17	59	325	221.0	-770.0	5111.0	-5584656.0
16	15	17	59	325	222.0	-338.0	5751.0	-5584252.0
16	15	17	59	325	223.0	3816.0	6082.0	-5585568.0
16	15	17	59	326	224.0	9846.0	6794.0	-5585473.0
16	15	17	59	326	225.0	14588.0	7185.0	-5584559.0
16	15	17	59	326	226.0	17207.0	6134.0	-5583959.0
16	15	17	59	327	227.0	15688.0	6327.0	-5585162.0
16	15	17	59	327	228.0	12883.0	6715.0	-5585479.0
16	15	17	59	327	229.0	11538.0	7034.0	-5584647.0
16	15	17	59	328	230.0	11716.0	7438.0	-5584200.0
16	15	17	59	328	231.0	10858.0	8728.0	-5585523.0
16	15	17	59	407	232.0	17003.0	11165.0	-5585348.0
16	15	17	59	407	233.0	28924.0	11752.0	-5584481.0
16	15	17	59	408	234.0	39856.0	12466.0	-5584232.0
16	15	17	59	408	235.0	48607.0	14114.0	-5585766.0
16	15	17	59	408	236.0	52621.0	15119.0	-5585437.0
16	15	17	59	408	237.0	48534.0	15846.0	-5584576.0
16	15	17	59	409	238.0	40919.0	16118.0	-5584823.0
16	15	17	59	409	239.0	35996.0	16878.0	-5586023.0
16	15	17	59	409	240.0	42740.0	17246.0	-5585352.0
16	15	17	59	410	241.0	61494.0	16026.0	-5584536.0
16	15	17	59	410	242.0	91447.0	15424.0	-5584513.0
16	15	17	59	410	243.0	117434.0	15814.0	-5585223.0
16	15	17	59	410	244.0	122039.0	17643.0	-5584501.0
16	15	17	59	411	245.0	90098.0	19159.0	-5584172.0
16	15	17	59	411	246.0	28175.0	19611.0	-5585581.0
16	15	17	59	411	247.0	-92156.0	20240.0	-5585373.0
16	15	17	59	412	248.0	-356467.0	19901.0	-5584452.0
16	15	17	59	412	249.0	-698974.0	18938.0	-5584236.0
16	15	17	59	412	250.0	-939952.0	19535.0	-5585566.0
16	15	17	59	412	251.0	-993376.0	21450.0	-5585266.0
16	15	17	59	413	252.0	-852989.0	22572.0	-5584428.0
16	15	17	59	413	253.0	-577029.0	23102.0	-5584971.0
16	15	17	59	413	254.0	-209537.0	23259.0	-5585796.0
16	15	17	59	414	255.0	175283.0	23433.0	-5585119.0
16	15	17	59	414	0.0	482305.0	22423.0	-5584302.0
16	15	17	59	414	1.0	660289.0	22360.0	-5585238.0
16	15	17	59	414	2.0	725825.0	24138.0	-5585911.0
16	15	17	59	414	3.0	697920.0	26044.0	-5585157.0
16	15	17	59	415	4.0	580837.0	26092.0	-5584297.0
16	15	17	59	415	5.0	361397.0	26568.0	-5585172.0
16	15	17	59	415	6.0	84763.0	26461.0	-5585792.0
16	15	17	59	415	7.0	-156841.0	25589.0	-5584983.0
16	15	17	59	416	8.0	-298230.0	24718.0	-5584212.0
16	15	17	59	416	9.0	-336197.0	24866.0	-5584965.0
16	15	17	59	416	10.0	-209386.0	26336.0	-5584851.0
16	15	17	59	416	11.0	43333.0	27194.0	-5584211.0
16	15	17	59	417	12.0	238305.0	27741.0	-5585169.0
16	15	17	59	417	13.0	269151.0	28581.0	-5585821.0
16	15	17	59	417	14.0	136339.0	28833.0	-5584916.0
16	15	17	59	487	15.0	-32697.0	27154.0	-5584315.0
16	15	17	59	487	16.0	-85945.0	26946.0	-5585384.0
16	15	17	59	487	17.0	-15298.0	28453.0	-5585692.0
16	15	17	59	488	18.0	99231.0	29512.0	-5584757.0
16	15	17	59	488	19.0	186526.0	30316.0	-5584144.0
16	15	17	59	488	20.0	249568.0	30577.0	-5585221.0
16	15	17	59	489	21.0	284145.0	31211.0	-5585482.0
16	15	17	59	489	22.0	252346.0	30756.0	-5584578.0
16	15	17	59	489	23.0	161546.0	29152.0	-5584159.0
16	15	17	59	489	24.0	29384.0	29507.0	-5585567.0
16	15	17	59	490	25.0	-105421.0	31324.0	-5585477.0
16	15	17	59	490	26.0	-215533.0	32325.0	-5584575.0
16	15	17	59	490	27.0	-276919.0	32992.0	-5584584.0
16	15	17	59	491	28.0	-277460.0	32995.0	-5585811.0
16	15	17	59	491	29.0	-246973.0	32837.0	-5585281.0
16	15	17	59	491	30.0	-194536.0	31118.0	-5584434.0
16	15	17	59	492	31.0	-136374.0	30626.0	-5584568.0
16	15	17	59	492	32.0	-81267.0	31743.0	-5585814.0
16	15	17	59	492	33.0	-29221.0	32896.0	-5585231.0
16	15	17	59	492	34.0	-4377.0	33164.0	-5584382.0
16	15	17	59	493	35.0	1262.0	33352.0	-5584441.0
16	15	17	59	493	36.0	6731.0	33764.0	-5585017.0
16	15	17	59	493	37.0	-1606.0	32908.0	-5584289.0
16	15	17	59	494	38.0	-16870.0	31202.0	-5584381.0
16	15	17	59	494	39.0	-22605.0	31068.0	-5585573.0
16	15	17	59	494	40.0	-20633.0	32724.0	-5584967.0
16	15	17	59	495	41.0	-13434.0	33259.0	-5584147.0
16	15	17	59	495	42.0	12960.0	33465.0	-5584913.0
16	15	17	59	495	43.0	44430.0	33529.0	-5585799.0
16	15	17	59	496	44.0	82125.0	33288.0	-5584978.0
16	15	17	59	496	45.0	115664.0	31345.0	-5584347.0
16	15	17	59	496	46.0	140593.0	30802.0	-5585559.0
16	15	17	59	497	47.0	145800.0	32381.0	-5585656.0
16	15	17	59	497	48.0	140889.0	32829.0	-5584824.0
16	15	17	59	497	49.0	138453.0	32551.0	-5584258.0
16	15	17	59	498	50.0	141452.0	32715.0	-5585609.0
16	15	17	59	498	51.0	159093.0	32568.0	-5585512.0
16	15	17	59	498	52.0	169963.0	31064.0	-5584695.0
16	15	17	59	499	53.0	163021.0	29045.0	-5583967.0
16	15	17	59	499	54.0	158084.0	29298.0	-5585179.0
16	15	17	59	499	55.0	148237.0	31505.0	-5585409.0
16	15	17	59	500	56.0	144521.0	32119.0	-5584622.0
16	15	17	59	500	57.0	131244.0	32098.0	-5584069.0
16	15	17	59	500	58.0	107914.0	32399.0	-5585018.0
16	15	17	59	501	59.0	87649.0	31860.0	-5584626.0
16	15	17	59	563	60.0	65987.0	30049.0	-5584272.0
16	15	17	59	563	61.0	49059.0	30391.0	-5585520.0
16	15	17	59	564	62.0	25081.0	32406.0	-5585270.0
16	15	17	59	564	63.0	1161.0	33318.0	-5584374.0
16	15	17	59	564	64.0	-18544.0	34399.0	-5584751.0
16	15	17	59	565	65.0	-34131.0	35772.0	-5585608.0
16	15	17	59	565	66.0	-31799.0	37092.0	-5584938.0
16	15	17	59	565	67.0	-24901.0	36941.0	-5584003.0
16	15	17	59	565	68.0	-25574.0	37215.0	-5584411.0
16	15	17	59	566	69.0	-37580.0	39606.0	-5585321.0
16	15	17	59	566	70.0	-57171.0	43903.0	-5584651.0
16	15	17	59	566	71.0	-64658.0	47209.0	-5583726.0
16	15	17	59	567	72.0	-74479.0	50754.0	-5584433.0
16	15	17	59	567	73.0	-79514.0	55198.0	-5585501.0
16	15	17	59	567	74.0	-69042.0	59439.0	-5584821.0
16	15	17	59	567	75.0	-63383.0	62308.0	-5584253.0
16	15	17	59	568	76.0	-53239.0	67114.0	-5585773.0
16	15	17	59	568	77.0	-48937.0	74164.0	-5585784.0
16	15	17	59	568	78.0	-52274.0	81603.0	-5584961.0
16	15	17	59	569	79.0	-48597.0	87806.0	-5584139.0
16	15	17	59	569	80.0	-49637.0	95103.0	-5584928.0
16	15	17	59	569	81.0	-39544.0	101821.0	-5584966.0
16	15	17	59	569	82.0	-32882.0	107479.0	-5584231.0
16	15	17	59	570	83.0	-23718.0	113527.0	-5584944.0
16	15	17	59	570	84.0	-10653.0	120803.0	-5585659.0
16	15	17	59	570	85.0	-8043.0	129659.0	-5584781.0
